ppg
-0.00
-0.00
-0.00
-0.00
-0.00
-0.00
-0.00
-0.00
-0.00
-0.00
0.00
0.01
0.01
-0.00
-0.03
-0.05
-0.05
0.00
0.13
0.36
0.66
1.01
1.37
1.72
2.06
2.40
2.79
3.24
3.80
4.42
5.06
5.66
6.20
6.68
7.15
7.68
8.31
9.14
10.09
11.04
11.88
12.56
13.14
13.76
14.65
15.96
17.91
20.32
22.90
25.38
27.58
29.57
31.68
34.32
37.81
42.54
48.15
54.10
59.83
64.97
69.58
74.14
79.34
85.71
93.76
103.00
112.62
121.73
129.77
136.75
143.30
150.75
157.77
166.64
177.95
191.79
206.97
220.57
228.25
225.36
208.53
176.87
132.76
80.05
23.07
-34.94
-92.44
-149.16
-205.23
-260.37
-313.74
-363.87
-409.83
-450.91
-486.50
-515.74
-537.23
-549.22
-549.96
-538.37
-514.21
-478.67
-433.88
-382.45
-327.02
-269.84
-212.63
-156.66
-102.95
-52.37
-5.90
35.58
71.43
101.35
125.50
144.38
158.69
169.15
176.37
180.75
182.57
182.07
179.51
175.23
169.65
163.18
156.15
148.81
141.30
133.69
126.02
118.33
110.69
103.16
95.80
88.68
81.83
75.25
68.95
62.95
57.25
51.86
46.78
42.03
37.59
33.45
29.61
26.07
22.81
19.83
17.11
14.67
12.48
10.54
8.83
7.35
6.07
4.97
4.05
3.27
2.62
2.09
1.65
1.30
1.01
0.79
0.61
0.47
0.37
0.29
0.23
0.19
0.16
0.15
0.15
0.16
0.17
0.20
0.22
0.26
0.30
0.34
0.38
0.42
0.47
0.52
0.57
0.62
0.67
0.73
0.79
0.86
0.93
1.01
1.10
1.20
1.31
1.44
1.58
1.73
1.91
2.10
2.32
2.56
2.83
3.12
3.44
3.79
4.18
4.60
5.06
5.55
6.08
6.65
7.26
7.92
8.62
9.36
10.15
10.98
11.86
12.78
13.75
14.79
15.89
17.04
18.26
19.52
20.80
22.04
23.16
24.08
24.67
24.82
24.42
23.39
21.65
19.18
16.02
12.19
7.86
3.22
-1.52
-6.11
-10.31
-13.93
-16.86
-19.05
-20.54
-21.36
-21.61
-21.37
-20.72
-19.73
-18.49
-17.11
-15.69
-14.34
-13.09
-11.99
-10.97
-9.93
-8.77
-7.46
-6.05
-4.71
-3.58
-2.73
-2.25
-2.02
-1.80
-1.33
-0.52
0.52
1.48
2.07
2.14
1.48
0.31
-0.88
-1.62
-1.71
-1.31
-0.93
-1.08
-2.06
-4.23
-7.32
-10.70
-13.67
-15.87
-17.40
-18.68
-20.42
-23.35
-28.94
-37.99
-50.28
-64.32
-77.44
-86.65
-89.83
-86.93
-75.46
-57.61
-37.21
-18.02
-2.43
8.98
16.92
22.55
26.78
30.12
32.17
32.99
33.09
33.21
33.86
35.16
36.83
38.34
39.30
39.05
37.62
35.46
33.21
31.35
30.06
29.14
28.21
27.00
25.11
22.58
19.73
16.92
14.42
12.29
10.45
8.76
7.11
5.29
3.19
0.79
-1.85
-4.62
-7.38
-9.99
-12.40
-14.61
-16.80
-19.17
-21.88
-24.99
-28.50
-32.29
-36.21
-40.14
-43.98
-47.79
-51.76
-56.27
-61.67
-68.17
-75.60
-83.24
-89.85
-94.01
-94.44
-90.47
-82.30
-70.92
-57.82
-44.54
-32.25
-21.50
-12.27
-4.18
3.28
10.45
17.40
24.01
30.02
35.21
39.48
42.88
45.54
47.60
49.15
50.29
51.15
51.93
52.86
54.08
55.53
56.99
58.09
58.48
58.02
56.79
55.09
53.24
51.51
49.96
48.53
47.06
45.41
43.54
41.56
39.59
37.81
36.27
34.96
33.81
32.71
31.57
30.34
28.98
27.49
25.90
24.20
22.41
20.55
18.61
16.60
14.52
12.36
10.04
7.50
4.73
1.79
-1.14
-3.89
-6.32
-8.49
-10.58
-12.87
-15.58
-18.78
-22.41
-26.30
-30.31
-34.31
-38.20
-41.90
-45.37
-48.67
-52.08
-56.04
-61.01
-67.19
-74.29
-81.41
-87.16
-90.03
-88.85
-83.24
-73.78
-61.74
-48.74
-36.14
-24.76
-14.78
-5.95
2.07
9.45
16.03
21.49
25.48
27.77
28.40
27.64
25.89
23.63
21.30
19.24
17.61
16.34
15.13
13.58
11.38
8.48
5.18
1.98
-0.67
-2.56
-3.77
-4.49
-4.84
-4.71
-3.85
-1.99
1.01
5.12
10.25
16.29
23.17
30.73
38.66
46.43
53.51
59.42
63.90
66.98
68.84
69.81
70.25
70.51
70.74
70.85
70.47
69.07
66.18
61.66
55.79
49.25
42.78
36.85
31.55
26.51
21.19
15.16
8.33
0.95
-6.51
-13.53
-19.76
-25.03
-29.44
-33.24
-36.93
-41.26
-47.09
-55.15
-65.60
-77.69
-89.73
-99.44
-104.67
-104.19
-98.07
-87.73
-75.34
-63.20
-53.09
-46.15
-42.80
-42.94
-46.11
-51.50
-57.78
-63.16
-65.78
-64.24
-58.21
-48.75
-37.93
-28.05
-20.55
-15.52
-11.82
-7.79
-2.16
5.34
14.04
22.76
30.50
36.84
42.06
47.08
52.95
60.42
69.56
79.60
89.37
98.07
105.91
114.27
125.03
139.24
155.99
171.89
181.78
180.44
164.48
133.48
89.92
38.28
-16.67
-71.28
-123.63
-173.55
-222.25
-271.84
-324.24
-380.03
-437.02
-489.55
-529.08
-546.41
-534.59
-491.34
-419.90
-328.13
-226.15
-123.97
-29.75
50.90
114.94
161.67
192.43
210.09
218.38
220.79
219.81
216.44
210.52
201.30
187.94
170.19
148.69
125.13
102.03
82.14
67.53
58.89
55.44
55.22
55.93
55.74
53.85
50.50
46.61
43.23
41.06
40.27
40.44
40.84
40.74
39.67
37.51
34.43
30.76
26.84
22.94
19.19
15.76
12.80
10.51
8.96
8.10
7.66
7.26
6.59
5.51
4.20
2.96
2.14
1.91
2.17
2.73
3.41
4.15
5.05
6.24
7.72
9.31
10.78
11.94
12.76
13.39
14.04
14.85
15.81
16.73
17.35
17.43
16.89
15.92
14.94
14.57
15.30
17.42
20.85
25.26
30.31
35.75
41.51
47.45
53.31
58.62
62.90
65.99
68.01
69.30
70.11
70.38
69.86
68.46
66.56
65.04
65.06
67.52
72.67
80.01
88.43
96.56
103.01
106.48
105.84
100.19
88.98
72.30
51.05
26.97
2.54
-19.42
-36.24
-46.11
-48.58
-44.75
-37.03
-28.33
-21.19
-17.03
-15.84
-16.61
-17.95
-18.75
-18.60
-17.67
-16.41
-15.16
-14.01
-12.83
-11.49
-9.91
-8.17
-6.37
-4.57
-2.74
-0.82
1.25
3.43
5.62
7.65
9.28
10.29
10.46
9.74
8.27
6.47
4.87
3.93
3.82
4.33
5.01
5.37
5.14
4.39
3.45
2.71
2.36
2.32
2.27
1.92
1.07
-0.22
-1.71
-3.12
-4.29
-5.13
-5.74
-6.22
-6.71
-7.33
-8.17
-9.30
-10.74
-12.46
-14.37
-16.35
-18.28
-20.10
-21.86
-23.66
-25.63
-27.89
-30.42
-33.10
-35.77
-38.27
-40.58
-42.83
-45.30
-48.28
-51.97
-56.29
-60.82
-64.79
-67.31
-67.53
-64.92
-59.47
-51.73
-42.63
-33.23
-24.43
-16.75
-10.27
-4.77
0.07
4.57
8.86
12.94
16.66
19.83
22.29
23.95
24.83
25.06
24.83
24.40
23.96
23.67
23.57
23.65
23.79
23.87
23.80
23.53
23.11
22.60
22.07
21.48
20.73
19.67
18.25
16.54
14.76
13.15
11.85
10.86
9.98
9.02
7.89
6.67
5.58
4.83
4.39
4.07
3.54
2.56
1.11
-0.59
-2.27
-3.78
-5.17
-6.58
-8.11
-9.61
-10.85
-11.51
-11.56
-11.21
-10.92
-11.11
-11.96
-13.44
-15.28
-17.28
-19.38
-21.62
-24.07
-26.70
-29.34
-31.78
-33.91
-35.86
-37.90
-40.43
-43.73
-47.84
-52.48
-57.12
-61.01
-63.38
-63.55
-61.14
-56.15
-49.05
-40.58
-31.68
-23.11
-15.42
-8.76
-3.06
1.89
6.30
10.30
13.92
17.13
19.93
22.30
24.29
25.92
27.21
28.12
28.63
28.78
28.65
28.43
28.33
28.42
28.62
28.73
28.46
27.60
26.18
24.40
22.58
21.02
19.83
18.94
18.12
17.17
15.98
14.59
13.13
11.74
10.46
9.29
8.15
7.02
5.95
4.95
4.08
3.32
2.61
1.85
0.96
-0.11
-1.35
-2.75
-4.30
-5.98
-7.83
-9.82
-11.87
-13.91
-15.81
-17.48
-18.95
-20.35
-21.89
-23.73
-25.95
-28.40
-30.81
-32.93
-34.67
-36.19
-37.87
-40.14
-43.34
-47.59
-52.61
-57.85
-62.48
-65.60
-66.39
-64.38
-59.55
-52.40
-43.78
-34.70
-26.01
-18.20
-11.41
-5.47
-0.11
4.93
9.78
14.49
18.95
23.03
26.56
29.38
31.39
32.57
33.02
32.93
32.58
32.27
32.27
32.74
33.65
34.81
35.88
36.49
36.40
35.55
34.11
32.34
30.52
28.82
27.33
26.01
24.80
23.62
22.39
21.05
19.54
17.86
16.10
14.43
13.02
11.99
11.28
10.76
10.24
9.66
9.06
8.59
8.33
8.18
7.91
7.26
6.11
4.58
2.99
1.66
0.75
0.17
-0.39
-1.21
-2.47
-4.12
-5.93
-7.67
-9.12
-10.27
-11.21
-12.24
-13.64
-15.69
-18.49
-21.88
-25.51
-28.97
-32.00
-34.64
-37.26
-40.38
-44.47
-49.70
-55.89
-62.48
-68.70
-73.68
-76.59
-76.84
-74.17
-68.73
-61.11
-52.17
-42.88
-34.08
-26.29
-19.64
-13.94
-8.75
-3.68
1.49
6.75
11.80
16.34
20.13
23.22
25.82
28.26
30.79
33.52
36.42
39.43
42.47
45.45
48.21
50.50
52.01
52.48
51.85
50.27
48.06
45.64
43.30
41.25
39.50
37.96
36.47
34.87
33.06
31.05
28.95
26.93
25.14
23.62
22.25
20.76
18.89
16.53
13.78
10.98
8.52
6.67
5.41
4.45
3.40
1.92
-0.02
-2.25
-4.37
-6.10
-7.29
-8.11
-8.83
-9.76
-11.13
-13.03
-15.39
-18.06
-20.90
-23.72
-26.46
-29.15
-31.99
-35.30
-39.50
-44.94
-51.74
-59.66
-67.99
-75.66
-81.42
-84.20
-83.44
-79.23
-72.36
-64.06
-55.62
-48.04
-41.73
-36.58
-32.15
-27.99
-23.87
-19.89
-16.26
-13.19
-10.61
-8.22
-5.51
-2.02
2.58
8.42
15.41
23.32
31.73
40.10
47.79
54.16
58.76
61.47
62.51
62.44
61.91
61.57
61.81
62.73
64.14
65.66
66.86
67.35
66.93
65.55
63.37
60.64
57.62
54.40
50.85
46.60
41.14
34.08
25.38
15.43
5.03
-4.87
-13.54
-20.60
-26.19
-30.74
-34.77
-38.71
-42.74
-46.84
-50.89
-54.77
-58.46
-61.97
-65.44
-68.97
-72.70
-76.69
-80.94
-85.34
-89.71
-93.89
-97.81
-101.57
-105.50
-110.04
-115.64
-122.46
-130.17
-137.86
-144.21
-147.75
-147.37
-142.66
-133.97
-122.28
-108.81
-94.71
-80.80
-67.54
-55.11
-43.50
-32.61
-22.29
-12.44
-3.04
5.79
13.80
20.79
26.63
31.38
35.17
38.16
40.49
42.28
43.76
45.25
47.15
49.77
53.21
57.29
61.65
65.85
69.57
72.71
75.36
77.80
80.40
83.45
87.17
91.54
96.42
101.49
106.38
110.69
114.14
116.50
117.67
117.57
116.17
113.42
109.34
104.03
97.71
90.59
82.78
74.28
65.02
55.03
44.65
34.53
25.42
17.84
11.72
6.37
0.83
-5.64
-13.08
-20.75
-27.37
-31.65
-32.87
-31.07
-27.03
-21.85
-16.53
-11.61
-7.13
-2.84
1.53
5.91
9.88
12.81
14.19
13.91
12.38
10.37
8.64
7.68
7.61
8.24
9.37
10.92
12.92
15.43
18.31
21.20
23.57
24.92
25.01
23.88
21.81
19.21
16.45
13.81
11.46
9.49
7.89
6.61
5.49
4.30
2.81
0.81
-1.76
-4.78
-8.06
-11.34
-14.47
-17.48
-20.56
-24.07
-28.38
-33.78
-40.35
-47.86
-55.68
-62.86
-68.23
-70.69
-69.53
-64.60
-56.46
-46.14
-34.84
-23.56
-12.91
-3.03
6.21
15.02
23.46
31.39
38.49
44.36
48.72
51.47
52.80
53.13
53.02
53.00
53.40
54.33
55.63
57.05
58.29
59.13
59.47
59.26
58.52
57.21
55.35
53.03
50.41
47.78
45.41
43.47
41.89
40.47
38.93
37.09
35.01
32.94
31.11
29.65
28.43
27.20
25.75
24.01
22.12
20.24
18.47
16.79
15.07
13.25
11.35
9.49
7.77
6.23
4.76
3.22
1.49
-0.47
-2.60
-4.84
-7.11
-9.38
-11.67
-13.95
-16.25
-18.55
-20.88
-23.33
-26.01
-29.02
-32.40
-36.08
-39.90
-43.66
-47.20
-50.49
-53.66
-57.01
-60.95
-65.83
-71.72
-78.22
-84.40
-88.93
-90.48
-88.18
-81.94
-72.53
-61.26
-49.56
-38.50
-28.61
-19.93
-12.24
-5.28
1.12
7.03
12.46
17.41
21.82
25.56
28.51
30.61
31.91
32.65
33.18
33.86
34.89
36.26
37.78
39.17
40.20
40.73
40.74
40.25
39.33
38.05
36.47
34.67
32.71
30.67
28.61
26.60
24.73
23.05
21.61
20.40
19.33
18.30
17.22
16.04
14.80
13.49
12.12
10.65
9.02
7.23
5.28
3.22
1.09
-1.13
-3.46
-5.88
-8.33
-10.68
-12.86
-14.89
-16.94
-19.28
-22.12
-25.51
-29.25
-33.01
-36.45
-39.44
-42.08
-44.64
-47.54
-51.11
-55.62
-61.07
-67.15
-73.17
-78.10
-80.76
-80.14
-75.84
-68.19
-58.27
-47.52
-37.31
-28.49
-21.30
-15.46
-10.39
-5.53
-0.53
4.67
9.88
14.81
19.16
22.72
25.44
27.40
28.74
29.63
30.25
30.78
31.38
32.20
33.31
34.63
35.97
37.05
37.57
37.36
36.39
34.83
32.91
30.93
29.11
27.58
26.33
25.30
24.37
23.46
22.50
21.46
20.30
18.98
17.51
15.95
14.42
13.08
11.97
10.99
9.98
8.77
7.34
5.81
4.38
3.15
2.08
0.97
-0.38
-2.02
-3.88
-5.79
-7.64
-9.43
-11.31
-13.37
-15.65
-18.07
-20.55
-23.04
-25.62
-28.36
-31.26
-34.21
-37.01
-39.49
-41.69
-43.82
-46.23
-49.33
-53.30
-58.10
-63.28
-68.09
-71.52
-72.60
-70.65
-65.51
-57.70
-48.18
-38.18
-28.75
-20.56
-13.82
-8.35
-3.75
0.38
4.34
8.26
12.05
15.53
18.49
20.80
22.42
23.48
24.13
24.55
24.85
25.11
25.38
25.75
26.30
27.07
27.99
28.87
29.50
29.68
29.35
28.59
27.57
26.48
25.43
24.45
23.47
22.39
21.17
19.85
18.53
17.28
16.14
15.08
14.01
12.88
11.68
10.46
9.27
8.17
7.17
6.24
5.36
4.50
3.63
2.72
1.71
0.50
-0.97
-2.73
-4.69
-6.72
-8.68
-10.50
-12.22
-14.03
-16.09
-18.50
-21.23
-24.09
-26.85
-29.38
-31.67
-33.91
-36.33
-39.20
-42.71
-46.96
-51.90
-57.24
-62.36
-66.33
-68.08
-66.77
-62.09
-54.48
-45.00
-35.02
-25.75
-17.92
-11.68
-6.71
-2.52
1.33
5.11
8.85
12.46
15.72
18.45
20.48
21.78
22.42
22.64
22.69
22.87
23.37
24.27
25.52
27.00
28.53
29.89
30.86
31.25
30.94
29.94
28.43
26.72
25.15
23.92
23.03
22.29
21.42
20.24
18.75
17.13
15.63
14.40
13.40
12.44
11.31
9.93
8.44
7.11
6.14
5.54
5.06
4.33
3.05
1.11
-1.33
-3.96
-6.48
-8.70
-10.60
-12.30
-13.97
-15.79
-17.86
-20.19
-22.71
-25.31
-27.89
-30.39
-32.92
-35.71
-39.05
-43.20
-48.26
-54.00
-59.79
-64.66
-67.48
-67.28
-63.66
-56.93
-48.02
-38.23
-28.74
-20.37
-13.37
-7.55
-2.56
2.01
6.38
10.63
14.66
18.28
21.31
23.69
25.47
26.83
27.99
29.05
30.04
30.90
31.60
32.20
32.85
33.62
34.48
35.25
35.66
35.55
34.85
33.70
32.31
30.87
29.48
28.17
26.90
25.62
24.32
23.02
21.75
20.58
19.52
18.55
17.59
16.48
15.13
13.49
11.66
9.83
8.15
6.73
5.56
4.49
3.32
1.88
0.11
-1.96
-4.17
-6.33
-8.26
-9.93
-11.46
-13.10
-15.13
-17.72
-20.93
-24.53
-28.25
-31.82
-35.12
-38.24
-41.49
-45.23
-49.79
-55.23
-61.26
-67.16
-71.94
-74.49
-73.96
-69.99
-62.87
-53.48
-43.00
-32.62
-23.22
-15.25
-8.77
-3.52
0.88
4.82
8.62
12.46
16.36
20.21
23.75
26.72
28.94
30.37
31.16
31.61
32.05
32.72
33.71
34.96
36.28
37.44
38.25
38.57
38.33
37.55
36.35
34.91
33.44
32.15
31.12
30.30
29.50
28.53
27.22
25.62
23.88
22.24
20.89
19.86
19.03
18.18
17.16
15.88
14.45
12.97
11.53
10.13
8.69
7.11
5.33
3.37
1.29
-0.85
-3.01
-5.16
-7.29
-9.39
-11.49
-13.66
-16.02
-18.66
-21.59
-24.73
-27.88
-30.86
-33.57
-36.06
-38.56
-41.39
-44.90
-49.36
-54.82
-60.99
-67.17
-72.30
-75.17
-74.79
-70.72
-63.27
-53.46
-42.66
-32.18
-22.89
-15.11
-8.65
-3.11
1.89
6.56
10.93
14.92
18.43
21.40
23.83
25.75
27.26
28.42
29.36
30.23
31.22
32.46
33.99
35.74
37.47
38.85
39.62
39.64
38.97
37.89
36.71
35.69
34.88
34.15
33.31
32.15
30.63
28.89
27.09
25.41
23.92
22.55
21.19
19.75
18.13
16.37
14.51
12.65
10.84
9.10
7.39
5.61
3.62
1.35
-1.20
-3.86
-6.47
-8.85
-10.97
-12.97
-15.08
-17.56
-20.62
-24.25
-28.33
-32.59
-36.74
-40.57
-44.09
-47.51
-51.24
-55.75
-61.32
-67.77
-74.38
-79.94
-83.09
-82.79
-78.64
-71.10
-61.29
-50.61
-40.31
-31.09
-23.12
-16.08
-9.55
-3.19
3.12
9.25
14.97
20.06
24.41
28.02
30.97
33.36
35.28
36.82
38.10
39.25
40.42
41.70
43.11
44.52
45.72
46.46
46.51
45.78
44.35
42.43
40.35
38.46
37.02
36.12
35.68
35.48
35.24
34.75
33.92
32.78
31.45
30.10
28.83
27.68
26.60
25.48
24.21
22.76
21.10
19.25
17.22
15.03
12.75
10.44
8.24
6.17
4.22
2.23
0.02
-2.49
-5.22
-7.97
-10.45
-12.56
-14.39
-16.26
-18.57
-21.59
-25.38
-29.73
-34.26
-38.58
-42.43
-45.77
-48.80
-51.92
-55.62
-60.35
-66.32
-73.31
-80.57
-86.89
-90.92
-91.51
-88.11
-80.98
-71.11
-59.89
-48.65
-38.34
-29.29
-21.36
-14.11
-7.19
-0.39
6.20
12.35
17.78
22.33
26.02
29.05
31.64
33.97
36.11
38.02
39.68
41.12
42.50
43.95
45.53
47.11
48.43
49.20
49.23
48.49
47.13
45.40
43.53
41.68
39.91
38.26
36.73
35.33
34.04
32.82
31.62
30.31
28.85
27.18
25.35
23.39
21.35
19.18
16.79
14.10
11.08
7.82
4.51
1.33
-1.64
-4.46
-7.34
-10.52
-14.12
-18.11
-22.29
-26.41
-30.22
-33.67
-36.92
-40.38
-44.48
-49.64
-55.94
-63.00
-69.92
-75.46
-78.33
-77.62
-73.10
-65.32
-55.36
-44.52
-33.88
-24.07
-15.32
-7.53
-0.50
5.95
11.93
17.47
22.53
27.02
30.81
33.83
36.07
37.69
38.92
40.01
41.16
42.44
43.85
45.36
46.86
48.22
49.20
49.60
49.29
48.31
46.86
45.26
43.76
42.46
41.31
40.15
38.79
37.18
35.35
33.40
31.49
29.71
28.15
26.81
25.71
24.78
23.94
23.09
22.14
21.02
19.74
18.32
16.81
15.24
13.62
11.97
10.27
8.53
6.71
4.84
2.90
0.90
-1.17
-3.35
-5.67
-8.18
-10.87
-13.67
-16.54
-19.45
-22.45
-25.68
-29.27
-33.23
-37.43
-41.62
-45.58
-49.21
-52.67
-56.35
-60.76
-66.29
-72.98
-80.32
-87.21
-92.21
-93.94
-91.58
-85.15
-75.53
-64.14
-52.43
-41.46
-31.70
-23.08
-15.25
-7.89
-0.79
6.05
12.48
18.37
23.51
27.80
31.23
33.86
35.84
37.37
38.60
39.68
40.71
41.78
42.92
44.11
45.24
46.13
46.61
46.57
45.99
44.97
43.68
42.29
40.93
39.64
38.39
37.13
35.82
34.46
33.06
31.71
30.44
29.25
28.09
26.89
25.59
24.16
22.61
20.94
19.17
17.32
15.46
13.68
12.04
10.54
9.07
7.46
5.53
3.22
0.60
-2.13
-4.70
-6.94
-8.79
-10.34
-11.83
-13.51
-15.63
-18.30
-21.50
-25.09
-28.89
-32.67
-36.34
-39.96
-43.78
-48.15
-53.32
-59.33
-65.72
-71.63
-75.84
-77.24
-75.10
-69.39
-60.75
-50.30
-39.29
-28.77
-19.34
-11.15
-4.06
2.21
7.90
13.09
17.72
21.67
24.83
27.18
28.82
29.95
30.81
31.61
32.51
33.58
34.82
36.17
37.49
38.65
39.47
39.84
39.67
38.93
37.71
36.16
34.53
33.09
32.01
31.27
30.70
29.99
28.90
27.34
25.42
23.44
21.70
20.45
19.69
19.29
18.94
18.36
17.36
15.90
14.12
12.16
10.21
8.35
6.58
4.84
3.07
1.20
-0.78
-2.88
-5.12
-7.45
-9.84
-12.29
-14.84
-17.57
-20.60
-23.99
-27.66
-31.46
-35.18
-38.66
-41.85
-44.93
-48.16
-51.95
-56.63
-62.36
-68.99
-75.91
-82.15
-86.47
-87.71
-85.17
-78.85
-69.51
-58.44
-47.08
-36.57
-27.52
-19.97
-13.56
-7.76
-2.16
3.48
9.16
14.76
20.04
24.75
28.73
31.88
34.20
35.80
36.89
37.69
38.43
39.30
40.38
41.62
42.86
43.85
44.37
44.26
43.52
42.30
40.85
39.43
38.25
37.34
36.58
35.75
34.65
33.24
31.61
29.97
28.50
27.25
26.14
25.05
23.90
22.71
21.54
20.40
19.20
17.81
16.15
14.27
12.28
10.35
8.54
6.83
5.18
3.58
2.05
0.62
-0.73
-2.13
-3.72
-5.60
-7.75
-10.04
-12.35
-14.63
-16.94
-19.42
-22.13
-25.09
-28.20
-31.36
-34.54
-37.79
-41.18
-44.83
-48.86
-53.40
-58.60
-64.56
-71.10
-77.67
-83.23
-86.52
-86.43
-82.42
-74.85
-64.83
-53.93
-43.53
-34.46
-26.83
-20.22
-14.02
-7.80
-1.46
4.80
10.61
15.68
19.86
23.13
25.66
27.57
29.06
30.25
31.32
32.44
33.76
35.39
37.24
39.12
40.73
41.81
42.17
41.85
40.97
39.71
38.25
36.71
35.14
33.57
32.02
30.51
29.03
27.54
26.04
24.52
22.97
21.42
19.84
18.23
16.55
14.81
13.06
11.37
9.80
8.35
7.00
5.62
4.11
2.38
0.41
-1.77
-4.09
-6.50
-9.00
-11.62
-14.37
-17.24
-20.17
-23.13
-26.12
-29.17
-32.33
-35.55
-38.85
-42.25
-45.95
-50.26
-55.41
-61.32
-67.41
-72.60
-75.63
-75.46
-71.65
-64.62
-55.36
-45.19
-35.25
-26.26
-18.42
-11.57
-5.40
0.37
5.88
11.10
15.92
20.18
23.80
26.73
29.05
30.87
32.30
33.41
34.28
35.01
35.77
36.79
38.22
40.02
41.91
43.43
44.10
43.72
42.39
40.48
38.45
36.64
35.14
33.80
32.48
31.03
29.49
27.96
26.51
25.18
23.92
22.69
21.45
20.22
19.05
17.96
16.94
15.97
14.98
13.90
12.69
11.31
9.83
8.28
6.74
5.24
3.81
2.44
1.07
-0.32
-1.79
-3.38
-5.09
-6.89
-8.72
-10.49
-12.17
-13.78
-15.48
-17.45
-19.82
-22.66
-25.90
-29.39
-32.94
-36.43
-39.81
-43.12
-46.56
-50.39
-54.92
-60.36
-66.65
-73.32
-79.38
-83.61
-84.83
-82.31
-76.10
-67.02
-56.39
-45.61
-35.71
-27.21
-20.09
-14.05
-8.67
-3.62
1.35
6.37
11.43
16.37
20.88
24.65
27.43
29.28
30.44
31.37
32.46
33.89
35.65
37.53
39.30
40.75
41.80
42.41
42.55
42.24
41.52
40.53
39.51
38.66
38.06
37.64
37.20
36.49
35.41
34.03
32.58
31.28
30.28
29.51
28.78
27.85
26.57
24.93
22.99
20.88
18.76
16.78
15.03
13.57
12.34
11.22
10.07
8.76
7.27
5.68
4.11
2.68
1.38
0.11
-1.27
-2.89
-4.79
-6.89
-9.03
-11.04
-12.89
-14.64
-16.49
-18.67
-21.28
-24.27
-27.46
-30.67
-33.75
-36.70
-39.61
-42.69
-46.18
-50.37
-55.47
-61.46
-67.95
-74.07
-78.63
-80.38
-78.54
-73.01
-64.47
-54.16
-43.45
-33.49
-24.90
-17.81
-12.00
-7.09
-2.68
1.49
5.56
9.50
13.17
16.42
19.15
21.36
23.21
24.90
26.68
28.66
30.84
33.10
35.23
37.07
38.47
39.37
39.72
39.50
38.72
37.43
35.80
34.05
32.38
30.93
29.71
28.62
27.57
26.52
25.47
24.49
23.57
22.63
21.58
20.32
18.89
17.37
15.92
14.67
13.62
12.70
11.78
10.68
9.29
7.55
5.46
3.12
0.60
-1.97
-4.57
-7.19
-9.92
-12.84
-16.05
-19.51
-23.13
-26.72
-30.11
-33.20
-36.04
-38.86
-42.00
-45.83
-50.62
-56.36
-62.64
-68.68
-73.36
-75.58
-74.53
-69.99
-62.47
-53.02
-42.91
-33.31
-24.96
-18.03
-12.29
-7.24
-2.35
2.70
8.01
13.39
18.49
22.93
26.45
28.98
30.69
31.88
32.84
33.84
35.01
36.40
37.94
39.51
40.96
42.08
42.74
42.84
42.33
41.25
39.70
37.88
36.00
34.32
33.04
32.17
31.59
31.04
30.23
29.01
27.44
25.73
24.13
22.78
21.64
20.52
19.21
17.55
15.58
13.47
11.44
9.64
8.13
6.80
5.49
4.05
2.34
0.31
-1.97
-4.42
-6.88
-9.23
-11.43
-13.57
-15.81
-18.32
-21.18
-24.33
-27.64
-30.90
-34.02
-37.02
-40.00
-43.15
-46.65
-50.73
-55.55
-61.17
-67.29
-73.19
-77.78
-79.84
-78.50
-73.55
-65.57
-55.74
-45.40
-35.60
-26.90
-19.39
-12.84
-6.93
-1.43
3.79
8.80
13.60
18.15
22.33
25.95
28.84
30.94
32.33
33.26
34.08
35.09
36.48
38.20
40.08
41.78
42.99
43.51
43.23
42.22
40.67
38.84
37.02
35.44
34.24
33.37
32.69
32.00
31.16
30.10
28.84
27.48
26.07
24.67
23.31
21.98
20.66
19.32
17.88
16.28
14.46
12.41
10.23
8.01
5.83
3.75
1.76
-0.18
-2.12
-4.10
-6.13
-8.26
-10.56
-13.10
-15.95
-19.12
-22.52
-25.97
-29.28
-32.37
-35.35
-38.51
-42.27
-47.02
-52.84
-59.44
-66.05
-71.55
-74.77
-74.79
-71.27
-64.51
-55.40
-45.16
-35.00
-25.81
-18.00
-11.52
-6.01
-1.03
3.75
8.47
13.07
17.32
21.04
24.04
26.35
28.13
29.64
31.11
32.66
34.26
35.81
37.22
38.43
39.48
40.38
41.09
41.44
41.25
40.45
39.08
37.40
35.64
34.02
32.59
31.34
30.24
29.30
28.56
28.00
27.53
26.96
26.13
25.00
23.65
22.29
21.09
20.12
19.30
18.50
17.56
16.42
15.11
13.70
12.23
10.68
9.02
7.24
5.39
3.58
1.89
0.32
-1.24
-2.94
-4.91
-7.15
-9.60
-12.16
-14.74
-17.30
-19.88
-22.47
-25.06
-27.66
-30.32
-33.13
-36.15
-39.39
-42.73
-46.07
-49.42
-53.01
-57.22
-62.44
-68.70
-75.52
-81.83
-86.26
-87.55
-84.97
-78.59
-69.24
-58.23
-46.90
-36.34
-27.12
-19.33
-12.74
-6.94
-1.52
3.83
9.28
14.77
20.07
24.87
28.83
31.76
33.73
34.99
35.96
36.97
38.24
39.75
41.37
42.92
44.24
45.23
45.81
45.87
45.29
44.04
42.25
40.22
38.31
36.81
35.79
35.08
34.42
33.56
32.45
31.12
29.73
28.40
27.20
26.17
25.30
24.56
23.85
23.04
21.96
20.56
18.85
17.01
15.28
13.84
12.71
11.82
10.97
10.06
9.01
7.86
6.65
5.39
4.06
2.62
1.04
-0.69
-2.55
-4.53
-6.62
-8.80
-11.04
-13.25
-15.42
-17.58
-19.88
-22.48
-25.48
-28.84
-32.36
-35.78
-38.94
-41.80
-44.48
-47.19
-50.21
-53.86
-58.40
-63.89
-70.00
-75.86
-80.21
-81.70
-79.48
-73.47
-64.50
-53.97
-43.30
-33.55
-25.15
-18.06
-11.98
-6.59
-1.66
2.98
7.42
11.71
15.80
19.55
22.73
25.18
26.87
27.94
28.65
29.32
30.24
31.60
33.45
35.65
37.90
39.80
40.99
41.20
40.40
38.74
36.56
34.21
32.03
30.26
28.98
28.15
27.59
27.04
26.33
25.35
24.17
22.92
21.72
20.59
19.49
18.30
16.94
15.40
13.71
11.93
10.09
8.15
6.13
4.04
1.89
-0.27
-2.42
-4.59
-6.81
-9.15
-11.65
-14.37
-17.30
-20.39
-23.50
-26.49
-29.29
-31.90
-34.46
-37.16
-40.24
-43.97
-48.51
-53.91
-59.89
-65.80
-70.65
-73.28
-72.82
-68.99
-62.26
-53.64
-44.34
-35.33
-27.11
-19.77
-13.22
-7.29
-1.95
2.87
7.25
11.38
15.42
19.43
23.32
26.83
29.71
31.79
33.15
34.06
34.88
35.87
37.13
38.52
39.78
40.67
41.10
41.14
40.89
40.41
39.65
38.49
36.87
34.89
32.76
30.77
29.11
27.81
26.81
25.96
25.17
24.38
23.55
22.63
21.56
20.32
18.95
17.56
16.22
14.99
13.81
12.64
11.42
10.17
8.92
7.68
6.44
5.13
3.72
2.16
0.46
-1.43
-3.49
-5.72
-8.03
-10.27
-12.34
-14.19
-15.95
-17.84
-20.10
-22.86
-26.03
-29.41
-32.72
-35.77
-38.54
-41.25
-44.26
-47.96
-52.64
-58.32
-64.63
-70.77
-75.71
-78.33
-77.84
-74.00
-67.20
-58.39
-48.78
-39.46
-31.17
-24.19
-18.32
-13.14
-8.18
-3.08
2.26
7.67
12.80
17.25
20.74
23.20
24.82
25.95
26.97
28.15
29.60
31.25
33.02
34.74
36.30
37.61
38.56
39.06
39.08
38.67
37.99
37.19
36.41
35.63
34.69
33.44
31.80
29.83
27.78
25.90
24.37
23.16
22.13
21.03
19.69
18.10
16.37
14.68
13.14
11.78
10.51
9.19
7.71
6.00
4.03
1.86
-0.45
-2.77
-5.00
-7.09
-9.08
-11.07
-13.21
-15.60
-18.26
-21.11
-24.04
-26.95
-29.82
-32.72
-35.81
-39.35
-43.57
-48.58
-54.19
-59.79
-64.39
-66.93
-66.56
-63.01
-56.68
-48.50
-39.59
-30.92
-23.07
-16.25
-10.38
-5.25
-0.64
3.69
7.87
11.95
15.84
19.35
22.29
24.54
26.17
27.43
28.59
29.85
31.25
32.72
34.11
35.32
36.31
37.09
37.65
37.93
37.85
37.33
36.37
35.05
33.56
32.05
30.68
29.45
28.33
27.24
26.13
25.02
23.96
23.06
22.32
21.68
21.02
20.21
19.16
17.84
16.27
14.54
12.73
10.90
9.16
7.57
6.16
4.89
3.62
2.16
0.36
-1.84
-4.35
-6.96
-9.45
-11.66
-13.61
-15.53
-17.74
-20.51
-23.92
-27.78
-31.72
-35.39
-38.59
-41.41
-44.15
-47.25
-51.11
-55.97
-61.76
-68.03
-73.94
-78.35
-80.14
-78.53
-73.43
-65.50
-55.91
-45.97
-36.68
-28.48
-21.33
-14.84
-8.68
-2.65
3.22
8.84
14.03
18.71
22.80
26.23
28.99
31.11
32.68
33.84
34.78
35.67
36.64
37.74
38.90
40.01
40.87
41.30
41.14
40.38
39.08
37.43
35.70
34.10
32.76
31.66
30.64
29.50
28.14
26.60
25.03
23.64
22.54
21.66
20.81
19.74
18.31
16.55
14.52
12.32
10.00
7.56
5.02
2.52
0.29
-1.33
-2.16
-2.20
-1.71
-1.09
-0.73
-0.89
-1.63
-2.90
-4.60
-6.70
-9.24
-12.21
-15.51
-18.89
-21.98
-24.43
-26.04
-26.78
-26.85
-26.69
-26.85
-27.98
-30.60
-34.98
-40.99
-48.01
-55.05
-60.86
-64.23
-64.29
-60.71
-53.85
-44.67
-34.48
-24.60
-16.02
-9.22
-4.10
-0.16
3.26
6.75
10.70
15.22
20.13
25.04
29.45
32.94
35.26
36.47
36.83
36.75
36.51
36.28
36.05
35.74
35.29
34.74
34.14
33.49
32.73
31.74
30.43
28.80
26.87
24.69
22.25
19.50
16.41
13.03
9.50
6.01
2.74
-0.20
-2.78
-4.97
-6.72
-7.96
-8.64
-8.85
-8.84
-9.04
-9.89
-11.67
-14.48
-18.16
-22.39
-26.79
-31.05
-35.01
-38.58
-41.78
-44.67
-47.34
-49.77
-51.87
-53.34
-53.71
-52.43
-49.01
-43.23
-35.32
-25.92
-15.99
-6.53
1.72
8.47
13.92
18.61
23.04
27.48
31.81
35.67
38.78
41.11
42.96
44.69
46.51
48.23
49.33
49.28
47.69
44.64
40.45
35.52
30.09
24.20
17.71
10.44
2.31
-6.68
-16.26
-25.97
-35.11
-42.91
-48.72
-52.17
-53.30
-52.39
-49.83
-45.87
-40.72
-34.51
-27.52
-20.20
-13.07
-6.64
-1.20
3.11
6.33
8.53
9.72
9.96
9.32
8.11
6.80
6.02
6.31
7.97
11.00
15.07
19.71
24.45
29.02
33.27
37.23
40.92
44.33
47.42
50.10
52.28
53.91
54.95
55.47
55.72
56.09
57.04
58.97
61.95
65.71
69.60
72.84
74.77
75.01
73.58
70.73
66.85
62.26
57.21
51.77
45.93
39.41
31.76
22.33
10.53
-3.90
-20.65
-38.80
-57.03
-73.91
-88.27
-99.43
-107.23
-111.84
-113.66
-113.22
-111.18
-108.40
-106.02
-105.36
-107.66
-113.57
-122.81
-134.00
-144.92
-153.17
-156.94
-155.51
-149.28
-139.40
-127.20
-113.77
-99.74
-85.41
-70.92
-56.31
-41.54
-26.38
-10.67
5.32
20.58
33.36
41.83
44.80
42.50
36.59
29.55
23.71
20.57
20.64
23.85
30.13
39.52
51.98
66.70
81.92
95.21
104.31
107.99
106.45
100.99
93.34
84.87
76.34
68.00
59.90
52.16
45.04
38.85
33.78
29.89
27.04
24.95
23.23
21.42
19.08
16.03
12.50
9.09
6.59
5.59
6.26
8.33
11.28
14.72
18.57
23.07
28.51
34.96
42.07
49.10
55.18
59.58
61.93
62.28
61.03
58.72
55.87
52.81
49.65
46.33
42.65
38.45
33.52
27.73
20.96
13.22
4.78
-3.74
-11.46
-17.41
-20.94
-21.95
-20.99
-18.96
-16.78
-14.95
-13.40
-11.68
-9.27
-5.91
-1.77
2.75
7.18
11.30
15.13
18.89
22.79
26.83
30.82
34.41
37.25
39.07
39.75
39.25
37.62
34.94
31.32
26.96
22.16
17.28
12.63
8.48
4.93
1.99
-0.40
-2.37
-4.04
-5.54
-7.00
-8.53
-10.18
-11.91
-13.67
-15.31
-16.73
-17.91
-18.88
-19.69
-20.41
-20.99
-21.37
-21.45
-21.17
-20.63
-20.02
-19.67
-19.81
-20.57
-21.85
-23.40
-24.92
-26.16
-27.06
-27.67
-28.14
-28.55
-28.88
-29.04
-28.94
-28.60
-28.24
-28.23
-28.99
-30.78
-33.64
-37.28
-41.14
-44.54
-46.76
-47.25
-45.75
-42.30
-37.26
-31.26
-25.02
-19.15
-14.05
-9.79
-6.18
-2.92
0.27
3.51
6.76
9.84
12.54
14.63
16.01
16.60
16.40
15.50
14.05
12.30
10.56
9.16
8.25
7.90
7.96
8.22
8.46
8.57
8.54
8.48
8.54
8.87
9.60
10.73
12.19
13.77
15.17
16.08
16.33
15.91
15.06
14.10
13.31
12.81
12.57
12.45
12.30
12.07
11.77
11.42
11.04
10.58
10.01
9.23
8.14
6.67
4.78
2.56
0.20
-2.07
-4.08
-5.77
-7.27
-8.78
-10.44
-12.21
-13.93
-15.36
-16.38
-17.05
-17.60
-18.36
-19.52
-21.11
-22.90
-24.58
-25.89
-26.76
-27.41
-28.21
-29.55
-31.69
-34.65
-38.22
-41.99
-45.37
-47.68
-48.25
-46.59
-42.56
-36.50
-29.14
-21.44
-14.23
-8.04
-2.94
1.29
5.04
8.62
12.16
15.63
18.86
21.71
24.08
25.93
27.30
28.24
28.81
29.11
29.30
29.50
29.82
30.25
30.62
30.72
30.35
29.40
27.93
26.03
23.80
21.31
18.53
15.44
11.98
8.09
3.70
-1.26
-6.74
-12.56
-18.34
-23.64
-28.01
-31.27
-33.46
-34.88
-35.85
-36.59
-37.11
-37.21
-36.73
-35.63
-34.02
-32.09
-29.96
-27.56
-24.70
-21.18
-16.95
-12.20
-7.28
-2.61
1.49
4.84
7.36
9.05
9.91
9.97
9.28
8.08
6.78
5.95
6.15
7.66
10.34
13.51
16.19
17.35
16.28
12.67
6.55
-1.79
-11.97
-23.42
-35.25
-46.20
-54.82
-59.83
-60.59
-57.32
-51.08
-43.37
-35.69
-29.16
-24.34
-21.23
-19.45
-18.42
-17.59
-16.57
-15.27
-13.84
-12.59
-11.77
-11.42
-11.34
-11.19
-10.64
-9.57
-8.08
-6.36
-4.61
-2.90
-1.16
0.70
2.71
4.79
6.80
8.63
10.29
11.88
13.56
15.41
17.34
19.16
20.66
21.68
22.24
22.50
22.56
22.54
22.40
22.10
21.66
21.14
20.64
20.15
19.54
18.58
17.09
15.08
12.75
10.36
8.15
6.15
4.25
2.21
-0.06
-2.54
-5.05
-7.35
-9.30
-10.89
-12.27
-13.70
-15.50
-17.98
-21.37
-25.84
-31.27
-37.22
-42.84
-47.05
-48.86
-47.67
-43.52
-37.13
-29.51
-21.74
-14.57
-8.32
-2.94
1.79
6.15
10.32
14.36
18.25
21.85
24.97
27.40
29.08
30.07
30.58
30.90
31.31
31.94
32.85
33.97
35.17
36.28
37.14
37.61
37.64
37.23
36.53
35.73
34.98
34.35
33.76
33.07
32.10
30.76
29.11
27.30
25.48
23.79
22.22
20.65
18.92
16.89
14.49
11.70
8.62
5.43
2.33
-0.48
-2.90
-4.93
-6.68
-8.35
-10.08
-11.97
-14.05
-16.30
-18.72
-21.32
-24.12
-27.15
-30.39
-33.83
-37.38
-40.93
-44.34
-47.52
-50.47
-53.37
-56.55
-60.43
-65.35
-71.42
-78.23
-84.83
-89.91
-92.09
-90.41
-84.72
-75.73
-64.80
-53.42
-42.78
-33.41
-25.29
-18.02
-11.14
-4.35
2.39
8.95
15.04
20.38
24.75
28.11
30.61
32.51
34.17
35.85
37.68
39.70
41.90
44.23
46.59
48.77
50.42
51.18
50.83
49.41
47.26
44.92
42.88
41.43
40.54
39.93
39.24
38.26
36.96
35.47
34.03
32.80
31.80
30.92
29.97
28.73
27.11
25.10
22.82
20.49
18.31
16.41
14.83
13.45
12.03
10.34
8.19
5.58
2.65
-0.35
-3.23
-5.90
-8.40
-10.91
-13.61
-16.68
-20.22
-24.22
-28.56
-33.00
-37.32
-41.32
-45.02
-48.65
-52.66
-57.57
-63.77
-71.23
-79.48
-87.47
-93.81
-97.09
-96.26
-90.98
-81.79
-69.94
-57.00
-44.43
-33.13
-23.37
-14.89
-7.13
0.35
7.77
15.04
21.84
27.86
32.85
36.79
39.80
42.11
43.93
45.46
46.83
48.14
49.50
50.98
52.57
54.11
55.34
55.92
55.55
54.09
51.66
48.60
45.35
42.37
39.87
37.86
36.09
34.23
31.98
29.23
26.03
22.57
19.11
15.78
12.62
9.52
6.27
2.66
-1.39
-5.81
-10.38
-14.85
-19.03
-22.91
-26.68
-30.66
-35.18
-40.52
-46.76
-53.71
-60.81
-67.19
-71.73
-73.40
-71.52
-66.03
-57.58
-47.27
-36.34
-25.81
-16.17
-7.47
0.60
8.36
15.96
23.23
29.81
35.31
39.51
42.46
44.42
45.81
46.98
48.15
49.40
50.72
52.07
53.43
54.72
55.87
56.73
57.14
57.00
56.26
54.98
53.30
51.38
49.40
47.47
45.57
43.58
41.32
38.66
35.67
32.55
29.58
26.98
24.77
22.73
20.53
17.88
14.70
11.15
7.54
4.22
1.34
-1.15
-3.51
-6.13
-9.33
-13.20
-17.58
-22.16
-26.56
-30.56
-34.11
-37.40
-40.71
-44.43
-48.97
-54.63
-61.47
-69.06
-76.40
-82.03
-84.43
-82.53
-76.13
-66.03
-53.70
-40.79
-28.56
-17.64
-8.00
0.72
8.93
16.79
24.18
30.79
36.27
40.40
43.19
44.87
45.81
46.39
46.85
47.34
47.89
48.57
49.41
50.43
51.54
52.49
52.99
52.74
51.67
49.89
47.67
45.35
43.12
41.05
39.05
37.03
34.93
32.76
30.60
28.55
26.70
25.11
23.84
22.83
21.98
21.05
19.81
18.06
15.76
13.07
10.31
7.77
5.61
3.78
2.04
0.10
-2.23
-4.94
-7.83
-10.60
-13.05
-15.12
-16.91
-18.68
-20.68
-23.08
-25.97
-29.26
-32.82
-36.40
-39.82
-42.96
-45.93
-49.04
-52.73
-57.40
-63.12
-69.48
-75.50
-79.88
-81.32
-78.98
-72.77
-63.38
-52.01
-40.06
-28.66
-18.51
-9.84
-2.50
3.83
9.52
14.81
19.78
24.36
28.34
31.52
33.76
35.08
35.70
35.95
36.14
36.56
37.33
38.44
39.73
40.94
41.78
42.01
41.50
40.28
38.57
36.61
34.65
32.84
31.20
29.68
28.21
26.70
25.15
23.59
22.05
20.58
19.19
17.91
16.72
15.65
14.69
13.75
12.73
11.47
9.92
8.12
6.22
4.43
2.90
1.61
0.44
-0.83
-2.33
-4.09
-6.02
-8.03
-10.09
-12.19
-14.33
-16.47
-18.54
-20.56
-22.58
-24.77
-27.26
-30.05
-32.97
-35.81
-38.40
-40.75
-43.11
-45.83
-49.29
-53.67
-58.95
-64.71
-70.18
-74.29
-75.83
-73.92
-68.21
-59.14
-47.85
-35.83
-24.51
-14.90
-7.35
-1.64
2.81
6.62
10.25
13.90
17.46
20.72
23.44
25.49
26.92
27.83
28.42
28.85
29.23
29.67
30.28
31.10
32.11
33.19
34.06
34.42
34.09
33.01
31.36
29.44
27.61
26.11
24.99
24.11
23.19
21.99
20.39
18.52
16.57
14.80
13.32
12.09
10.95
9.72
8.33
6.75
5.12
3.54
2.08
0.69
-0.69
-2.11
-3.60
-5.12
-6.65
-8.16
-9.70
-11.30
-13.01
-14.85
-16.82
-18.91
-21.10
-23.40
-25.80
-28.20
-30.47
-32.47
-34.18
-35.72
-37.44
-39.71
-42.85
-46.88
-51.42
-55.68
-58.57
-58.98
-56.22
-50.23
-41.68
-31.79
-21.86
-12.98
-5.64
0.19
4.87
8.85
12.37
15.47
18.03
19.92
21.08
21.65
21.87
22.00
22.28
22.81
23.55
24.36
25.13
25.74
26.14
26.33
26.28
25.96
25.34
24.42
23.28
22.03
20.81
19.70
18.70
17.76
16.77
15.68
14.49
13.30
12.21
11.32
10.70
10.30
10.02
9.72
9.26
8.50
7.40
6.00
4.42
2.82
1.31
-0.04
-1.28
-2.49
-3.75
-5.08
-6.47
-7.91
-9.42
-11.07
-12.87
-14.80
-16.77
-18.71
-20.55
-22.33
-24.11
-25.95
-27.87
-29.85
-31.88
-33.98
-36.24
-38.77
-41.75
-45.34
-49.60
-54.44
-59.40
-63.71
-66.32
-66.26
-62.95
-56.48
-47.62
-37.58
-27.64
-18.76
-11.42
-5.54
-0.73
3.46
7.45
11.43
15.40
19.19
22.57
25.31
27.24
28.36
28.78
28.76
28.57
28.45
28.56
28.93
29.49
30.10
30.62
30.90
30.81
30.27
29.24
27.74
25.86
23.72
21.46
19.24
17.22
15.51
14.18
13.20
12.46
11.76
10.95
9.96
8.83
7.72
6.75
5.92
5.05
3.91
2.30
0.20
-2.25
-4.81
-7.25
-9.55
-11.76
-14.01
-16.27
-18.40
-20.19
-21.45
-22.21
-22.67
-23.15
-23.93
-25.22
-27.11
-29.70
-33.02
-37.12
-41.81
-46.60
-50.73
-53.23
-53.24
-50.28
-44.45
-36.35
-27.03
-17.62
-9.03
-1.81
3.95
8.51
12.24
15.43
18.17
20.39
21.95
22.81
23.09
23.09
23.14
23.46
24.11
25.00
25.94
26.76
27.38
27.82
28.11
28.26
28.23
27.89
27.12
25.92
24.39
22.73
21.19
19.94
18.99
18.17
17.24
15.94
14.26
12.27
10.25
8.41
6.84
5.47
4.12
2.55
0.66
-1.60
-4.16
-6.92
-9.78
-12.65
-15.43
-18.03
-20.38
-22.57
-24.82
-27.44
-30.72
-34.67
-39.07
-43.52
-47.62
-51.16
-54.25
-57.23
-60.57
-64.65
-69.59
-75.22
-80.96
-85.85
-88.68
-88.21
-83.53
-74.39
-61.35
-45.69
-29.02
-12.81
1.95
14.87
25.98
35.55
43.89
51.17
57.50
62.87
67.23
70.45
72.45
73.20
72.80
71.47
69.44
66.92
64.03
60.82
57.36
53.78
50.24
46.84
43.55
40.31
37.06
33.85
30.86
28.32
26.37
24.95
23.86
22.83
21.65
20.26
18.76
17.32
16.10
15.11
14.33
13.63
12.88
12.01
11.00
9.87
8.70
7.58
6.63
5.91
5.41
5.02
4.58
3.96
3.06
1.97
0.83
-0.22
-1.10
-1.90
-2.79
-3.98
-5.56
-7.52
-9.71
-11.89
-13.94
-15.80
-17.56
-19.36
-21.35
-23.65
-26.27
-29.14
-32.19
-35.30
-38.45
-41.65
-44.99
-48.63
-52.74
-57.43
-62.70
-68.27
-73.55
-77.67
-79.62
-78.60
-74.22
-66.77
-57.12
-46.49
-36.11
-26.82
-18.96
-12.37
-6.57
-0.99
4.75
10.76
16.86
22.68
27.80
31.92
34.92
36.96
38.30
39.24
40.04
40.78
41.52
42.26
43.03
43.86
44.72
45.49
45.93
45.82
44.99
43.48
41.54
39.51
37.70
36.27
35.18
34.23
33.22
32.00
30.57
29.08
27.70
26.58
25.74
25.07
24.36
23.41
22.12
20.51
18.69
16.80
14.96
13.21
11.59
10.13
8.89
7.94
7.25
6.69
6.03
5.10
3.79
2.19
0.50
-1.03
-2.27
-3.22
-4.07
-5.06
-6.36
-8.00
-9.84
-11.70
-13.47
-15.17
-16.99
-19.16
-21.86
-25.09
-28.67
-32.28
-35.61
-38.51
-41.10
-43.75
-46.97
-51.17
-56.47
-62.53
-68.54
-73.36
-75.82
-75.03
-70.66
-63.05
-53.13
-42.20
-31.51
-22.02
-14.19
-7.95
-2.87
1.60
5.92
10.29
14.67
18.81
22.43
25.36
27.54
29.09
30.22
31.15
32.06
33.04
34.10
35.17
36.12
36.80
37.06
36.83
36.13
35.05
33.75
32.37
31.02
29.76
28.61
27.58
26.64
25.80
24.96
24.09
23.14
22.10
20.99
19.87
18.71
17.44
16.01
14.33
12.42
10.33
8.15
5.97
3.83
1.70
-0.50
-2.83
-5.29
-7.79
-10.18
-12.37
-14.36
-16.27
-18.36
-20.86
-23.88
-27.37
-31.10
-34.78
-38.23
-41.46
-44.67
-48.25
-52.58
-57.88
-64.09
-70.76
-77.04
-81.80
-83.91
-82.54
-77.44
-69.06
-58.42
-46.88
-35.65
-25.57
-16.94
-9.61
-3.20
2.71
8.41
14.01
19.41
24.41
28.75
32.19
34.59
36.00
36.66
36.92
37.23
37.90
39.05
40.62
42.36
43.90
44.94
45.31
45.01
44.24
43.27
42.31
41.43
40.54
39.50
38.21
36.73
35.18
33.68
32.25
30.78
29.16
27.34
25.42
23.59
22.01
20.73
19.68
18.75
17.82
16.84
15.76
14.53
13.05
11.27
9.20
6.94
4.63
2.40
0.31
-1.65
-3.58
-5.61
-7.81
-10.21
-12.70
-15.15
-17.42
-19.44
-21.29
-23.21
-25.43
-28.15
-31.36
-34.87
-38.39
-41.61
-44.45
-47.04
-49.77
-53.19
-57.78
-63.76
-70.85
-78.20
-84.52
-88.31
-88.40
-84.30
-76.33
-65.57
-53.46
-41.39
-30.33
-20.76
-12.71
-5.92
-0.03
5.34
10.46
15.47
20.32
24.82
28.74
31.96
34.51
36.63
38.56
40.47
42.36
44.14
45.69
46.94
47.91
48.59
48.93
48.84
48.26
47.21
45.81
44.30
42.84
41.52
40.29
39.04
37.66
36.16
34.60
33.09
31.70
30.42
29.16
27.82
26.32
24.70
23.05
21.48
20.02
18.63
17.24
15.77
14.16
12.45
10.65
8.77
6.83
4.83
2.76
0.63
-1.59
-3.91
-6.36
-8.90
-11.53
-14.20
-16.94
-19.83
-22.97
-26.41
-30.11
-33.86
-37.44
-40.67
-43.53
-46.27
-49.37
-53.43
-58.91
-65.94
-74.00
-81.90
-88.02
-90.75
-89.06
-82.81
-72.89
-60.80
-48.18
-36.30
-25.83
-16.82
-9.01
-2.04
4.32
10.18
15.52
20.28
24.37
27.72
30.30
32.16
33.43
34.32
35.11
36.03
37.26
38.84
40.73
42.76
44.67
46.14
46.95
46.97
46.24
44.96
43.37
41.73
40.15
38.67
37.21
35.68
34.05
32.30
30.53
28.80
27.17
25.60
24.04
22.39
20.59
18.65
16.58
14.46
12.26
9.94
7.42
4.64
1.62
-1.55
-4.75
-7.85
-10.80
-13.68
-16.62
-19.82
-23.40
-27.34
-31.47
-35.57
-39.41
-42.93
-46.28
-49.78
-53.83
-58.79
-64.87
-71.98
-79.64
-86.94
-92.61
-95.26
-93.81
-87.89
-78.02
-65.50
-52.02
-39.05
-27.54
-17.69
-9.17
-1.44
5.90
12.99
19.64
25.57
30.56
34.49
37.45
39.64
41.32
42.72
44.00
45.27
46.59
48.01
49.54
51.11
52.58
53.67
54.08
53.60
52.19
50.06
47.57
45.12
43.03
41.37
40.06
38.88
37.60
36.06
34.20
32.05
29.71
27.31
24.95
22.75
20.72
18.83
17.00
15.09
12.91
10.32
7.24
3.76
0.06
-3.62
-7.08
-10.29
-13.36
-16.48
-19.83
-23.47
-27.34
-31.31
-35.23
-38.98
-42.53
-45.94
-49.40
-53.24
-57.90
-63.78
-70.97
-79.09
-87.05
-93.34
-96.34
-94.86
-88.59
-78.19
-65.08
-50.93
-37.24
-24.95
-14.40
-5.44
2.30
9.26
15.74
21.89
27.63
32.73
36.94
40.10
42.26
43.70
44.78
45.80
46.93
48.17
49.46
50.68
51.76
52.58
53.02
52.92
52.18
50.81
48.98
46.96
45.04
43.39
42.02
40.76
39.38
37.67
35.60
33.32
31.08
29.15
27.66
26.54
25.57
24.50
23.11
21.34
19.25
17.01
14.76
12.60
10.49
8.28
5.80
2.93
-0.28
-3.61
-6.71
-9.29
-11.31
-13.01
-14.87
-17.32
-20.62
-24.64
-29.01
-33.30
-37.16
-40.53
-43.55
-46.58
-50.05
-54.31
-59.59
-65.81
-72.49
-78.66
-83.00
-84.16
-81.17
-73.90
-63.11
-50.27
-37.05
-24.80
-14.25
-5.45
1.94
8.35
14.04
19.03
23.16
26.31
28.48
29.86
30.82
31.74
32.90
34.43
36.23
38.11
39.89
41.53
43.05
44.50
45.77
46.61
46.69
45.77
43.90
41.43
38.84
36.58
34.83
33.46
32.14
30.52
28.44
25.97
23.38
21.01
19.09
17.63
16.43
15.14
13.35
10.82
7.49
3.57
-0.59
-4.61
-8.28
-11.61
-14.87
-18.42
-22.52
-27.24
-32.36
-37.49
-42.28
-46.57
-50.48
-54.41
-58.87
-64.34
-71.11
-79.04
-87.46
-95.19
-100.66
-102.37
-99.37
-91.59
-79.95
-66.07
-51.66
-38.11
-26.15
-15.84
-6.86
1.30
9.00
16.49
23.74
30.57
36.69
41.74
45.53
48.08
49.65
50.66
51.54
52.57
53.84
55.26
56.64
57.76
58.48
58.67
58.29
57.34
55.82
53.81
51.40
48.74
46.00
43.33
40.80
38.41
36.07
33.64
31.05
28.32
25.57
22.94
20.53
18.28
16.01
13.48
10.44
6.83
2.73
-1.62
-5.80
-9.39
-12.07
-13.79
-14.78
-15.60
-16.95
-19.52
-23.68
-29.40
-36.22
-43.46
-50.49
-56.95
-62.91
-68.80
-75.25
-82.91
-92.17
-103.03
-114.93
-126.75
-136.92
-143.74
-145.82
-142.53
-134.17
-121.92
-107.41
-92.18
-77.23
-62.92
-49.08
-35.41
-21.77
-8.39
4.23
15.50
24.94
32.31
37.67
41.30
43.65
45.17
46.30
47.37
48.57
50.04
51.80
53.82
55.91
57.82
59.25
59.98
60.03
59.70
59.48
59.88
61.24
63.54
66.44
69.35
71.65
72.87
72.74
71.30
68.77
65.53
61.92
58.20
54.47
50.71
46.84
42.73
38.30
33.48
28.25
22.67
16.89
11.14
5.73
0.92
-3.13
-6.44
-9.17
-11.62
-14.12
-17.00
-20.51
-24.78
-29.76
-35.19
-40.77
-46.19
-51.37
-56.47
-61.89
-68.11
-75.38
-83.45
-91.52
-98.22
-102.06
-101.83
-97.05
-88.09
-76.08
-62.52
-48.83
-36.07
-24.68
-14.67
-5.76
2.40
10.05
17.20
23.74
29.43
34.15
37.85
40.72
43.03
45.10
47.15
49.29
51.57
54.01
56.54
59.05
61.29
62.97
63.82
63.75
62.86
61.44
59.78
58.06
56.33
54.51
52.53
50.41
48.24
46.08
43.91
41.58
38.90
35.77
32.25
28.57
24.95
21.50
18.14
14.59
10.59
6.01
0.98
-4.20
-9.14
-13.61
-17.57
-21.30
-25.17
-29.60
-34.92
-41.25
-48.48
-56.22
-63.75
-70.03
-73.96
-74.51
-71.19
-64.22
-54.51
-43.39
-32.17
-21.71
-12.29
-3.78
4.15
11.68
18.74
25.08
30.45
34.71
37.91
40.24
41.93
43.22
44.31
45.35
46.46
47.68
49.00
50.39
51.77
52.99
53.90
54.30
54.00
52.91
51.08
48.72
46.13
43.60
41.32
39.30
37.41
35.45
33.24
30.75
28.04
25.34
22.83
20.56
18.41
16.10
13.43
10.30
6.85
3.30
-0.06
-3.13
-5.95
-8.71
-11.65
-14.94
-18.70
-22.90
-27.47
-32.20
-36.82
-41.10
-44.98
-48.69
-52.73
-57.72
-64.03
-71.54
-79.44
-86.42
-90.97
-91.87
-88.64
-81.55
-71.61
-60.14
-48.39
-37.28
-27.24
-18.27
-10.15
-2.63
4.43
11.01
16.96
22.13
26.42
29.87
32.61
34.84
36.72
38.39
39.92
41.39
42.83
44.28
45.69
46.95
47.86
48.26
48.10
47.40
46.32
45.00
43.57
42.11
40.66
39.26
37.89
36.46
34.86
32.96
30.71
28.22
25.71
23.39
21.37
19.62
17.95
16.16
14.10
11.65
8.82
5.66
2.31
-1.01
-4.07
-6.71
-8.98
-11.18
-13.68
-16.81
-20.67
-25.09
-29.73
-34.22
-38.40
-42.31
-46.18
-50.34
-55.10
-60.71
-67.32
-74.81
-82.68
-89.96
-95.27
-97.24
-94.91
-88.13
-77.70
-65.14
-52.19
-40.28
-30.17
-21.89
-14.93
-8.64
-2.52
3.59
9.59
15.18
20.14
24.34
27.84
30.73
33.13
35.11
36.77
38.22
39.66
41.29
43.23
45.42
47.58
49.35
50.37
50.45
49.67
48.25
46.53
44.83
43.33
42.10
41.10
40.21
39.33
38.36
37.25
35.93
34.40
32.71
30.93
29.10
27.20
25.12
22.68
19.75
16.27
12.35
8.18
3.96
-0.14
-4.01
-7.60
-10.90
-13.99
-17.00
-20.15
-23.70
-27.82
-32.61
-38.01
-43.81
-49.62
-54.89
-58.89
-60.86
-60.21
-56.68
-50.58
-42.68
-34.02
-25.60
-18.11
-11.80
-6.58
-2.24
1.37
4.24
6.26
7.34
7.54
7.15
6.64
6.47
6.92
8.05
9.68
11.51
13.28
14.81
16.00
16.78
17.09
16.93
16.30
15.27
13.91
12.31
10.59
8.87
7.30
6.00
4.98
4.15
3.25
1.97
0.07
-2.51
-5.61
-8.95
-12.15
-14.91
-17.06
-18.60
-19.68
-20.51
-21.35
-22.45
-23.99
-26.05
-28.54
-31.12
-33.17
-33.92
-32.60
-28.71
-22.21
-13.59
-3.72
6.37
15.76
23.83
30.35
35.43
39.39
42.64
45.52
48.19
50.52
52.22
52.84
52.08
49.92
46.66
42.89
39.28
36.43
34.63
33.82
33.45
32.52
29.73
23.85
14.26
1.43
-12.93
-26.40
-36.71
-42.78
-45.20
-46.00
-47.80
-52.56
-60.83
-71.53
-82.47
-91.34
-96.56
-97.86
-96.20
-93.29
-90.92
-90.35
-92.07
-95.78
-100.76
-106.19
-111.25
-115.13
-116.99
-115.96
-111.48
-103.52
-92.90
-81.07
-69.78
-60.44
-53.73
-49.44
-46.69
-44.42
-41.86
-38.74
-35.38
-32.45
-30.57
-30.00
-30.28
-30.37
-28.75
-23.88
-14.66
-0.79
17.20
38.10
60.33
82.23
102.31
119.37
132.61
141.79
147.21
149.64
149.95
148.69
145.86
141.02
133.64
123.65
111.60
98.52
85.51
73.18
61.62
50.52
39.63
28.94
18.80
9.55
1.27
-6.35
-13.94
-22.13
-31.32
-41.45
-52.01
-62.11
-70.70
-76.81
-79.78
-79.44
-76.07
-70.25
-62.64
-53.75
-43.93
-33.46
-22.69
-12.09
-2.24
6.34
13.38
18.90
23.15
26.49
29.22
31.51
33.40
34.93
36.16
37.22
38.24
39.28
40.32
41.18
41.68
41.70
41.21
40.29
39.00
37.37
35.36
32.93
30.11
27.07
24.08
21.38
19.06
17.09
15.28
13.44
11.41
9.11
6.53
3.71
0.72
-2.29
-5.13
-7.57
-9.49
-10.86
-11.80
-12.54
-13.31
-14.29
-15.54
-17.07
-18.87
-20.93
-23.28
-25.99
-29.13
-32.73
-36.64
-40.43
-43.46
-44.95
-44.24
-41.08
-35.76
-28.98
-21.67
-14.62
-8.26
-2.61
2.57
7.55
12.41
16.95
20.83
23.74
25.56
26.49
26.91
27.27
27.90
28.88
30.14
31.45
32.62
33.55
34.21
34.59
34.68
34.42
33.78
32.71
31.29
29.60
27.78
25.93
24.16
22.51
21.05
19.77
18.70
17.77
16.90
15.97
14.87
13.55
11.96
10.15
8.18
6.10
3.97
1.79
-0.41
-2.62
-4.82
-7.01
-9.16
-11.29
-13.44
-15.67
-18.00
-20.41
-22.83
-25.16
-27.31
-29.20
-30.86
-32.38
-33.99
-35.98
-38.66
-42.22
-46.59
-51.38
-55.88
-59.20
-60.52
-59.31
-55.50
-49.44
-41.87
-33.64
-25.52
-18.09
-11.66
-6.34
-2.04
1.38
4.11
6.28
7.98
9.30
10.28
10.98
11.46
11.79
12.02
12.22
12.45
12.79
13.35
14.23
15.41
16.78
18.06
18.86
18.79
17.58
15.21
11.95
8.32
4.91
2.24
0.50
-0.37
-0.70
-0.80
-0.85
-0.81
-0.50
0.25
1.42
2.82
4.12
5.00
5.28
4.94
4.11
2.97
1.66
0.29
-1.21
-2.99
-5.28
-8.23
-11.88
-16.03
-20.34
-24.44
-28.07
-31.17
-33.94
-36.70
-39.72
-43.09
-46.55
-49.58
-51.44
-51.40
-48.89
-43.68
-35.98
-26.41
-15.91
-5.58
3.62
11.01
16.37
19.94
22.24
23.80
24.99
25.91
26.49
26.67
26.52
26.29
26.26
26.58
27.20
27.91
28.46
28.73
28.74
28.56
28.22
27.67
26.81
25.60
24.06
22.31
20.55
18.91
17.48
16.26
15.24
14.31
13.39
12.36
11.19
9.92
8.71
7.75
7.16
6.94
6.89
6.72
6.16
5.07
3.47
1.51
-0.58
-2.56
-4.21
-5.40
-6.10
-6.43
-6.68
-7.17
-8.14
-9.65
-11.57
-13.68
-15.75
-17.69
-19.54
-21.47
-23.63
-26.17
-29.20
-32.81
-36.96
-41.40
-45.58
-48.64
-49.69
-48.11
-43.82
-37.35
-29.70
-21.98
-15.04
-9.28
-4.62
-0.69
2.89
6.35
9.70
12.73
15.24
17.08
18.29
19.01
19.46
19.81
20.13
20.44
20.78
21.21
21.79
22.56
23.41
24.07
24.25
23.73
22.50
20.76
18.86
17.11
15.68
14.56
13.64
12.73
11.72
10.57
9.35
8.15
7.09
6.22
5.55
5.04
4.63
4.25
3.82
3.32
2.71
1.97
1.04
-0.09
-1.43
-2.96
-4.60
-6.25
-7.81
-9.24
-10.56
-11.86
-13.29
-14.98
-17.00
-19.28
-21.67
-23.98
-26.11
-28.09
-30.07
-32.29
-34.96
-38.24
-42.11
-46.34
-50.46
-53.75
-55.40
-54.71
-51.34
-45.51
-37.94
-29.65
-21.65
-14.58
-8.67
-3.81
0.24
3.70
6.64
9.09
11.06
12.65
13.98
15.17
16.32
17.44
18.52
19.51
20.40
21.19
21.92
22.65
23.40
24.19
24.89
25.33
25.30
24.68
23.54
22.08
20.63
19.47
18.76
18.47
18.45
18.54
18.59
18.53
18.37
18.15
17.81
17.31
16.53
15.45
14.11
12.64
11.26
10.09
9.18
8.38
7.51
6.38
4.92
3.20
1.39
-0.35
-1.94
-3.44
-5.03
-6.92
-9.27
-12.08
-15.21
-18.37
-21.28
-23.77
-25.85
-27.78
-29.93
-32.70
-36.31
-40.69
-45.44
-49.82
-52.96
-54.06
-52.59
-48.53
-42.33
-34.83
-27.01
-19.71
-13.41
-8.22
-3.96
-0.36
2.78
5.58
8.02
10.16
12.06
13.85
15.57
17.21
18.64
19.71
20.38
20.72
20.95
21.32
21.99
22.96
24.08
25.13
25.89
26.27
26.24
25.85
25.20
24.38
23.51
22.67
21.87
21.02
19.97
18.64
17.07
15.43
14.00
13.00
12.49
12.31
12.20
11.92
11.33
10.45
9.37
8.24
7.13
6.12
5.24
4.45
3.64
2.67
1.40
-0.22
-2.09
-4.00
-5.79
-7.40
-8.96
-10.74
-12.98
-15.72
-18.84
-21.99
-24.83
-27.20
-29.17
-31.03
-33.18
-35.96
-39.58
-44.07
-49.18
-54.43
-59.12
-62.37
-63.40
-61.68
-57.19
-50.43
-42.35
-33.98
-26.17
-19.41
-13.72
-8.85
-4.46
-0.30
3.71
7.47
10.80
13.61
15.90
17.79
19.46
21.08
22.66
24.14
25.40
26.36
27.06
27.61
28.14
28.71
29.26
29.64
29.69
29.36
28.66
27.77
26.85
26.08
25.55
25.26
25.16
25.07
24.86
24.37
23.56
22.48
21.27
20.10
19.10
18.31
17.68
17.10
16.43
15.60
14.58
13.39
12.11
10.81
9.56
8.41
7.42
6.55
5.71
4.76
3.57
2.06
0.26
-1.68
-3.57
-5.26
-6.73
-8.13
-9.70
-11.72
-14.30
-17.39
-20.73
-24.03
-27.04
-29.74
-32.29
-35.04
-38.35
-42.46
-47.38
-52.80
-58.14
-62.56
-65.16
-65.18
-62.20
-56.32
-48.21
-38.90
-29.52
-20.96
-13.67
-7.62
-2.48
2.18
6.60
10.83
14.69
17.96
20.48
22.30
23.59
24.61
25.60
26.64
27.75
28.88
29.97
31.07
32.23
33.45
34.62
35.50
35.81
35.42
34.42
33.10
31.86
31.00
30.58
30.45
30.34
30.03
29.48
28.75
27.97
27.22
26.50
25.77
25.01
24.21
23.37
22.46
21.41
20.14
18.62
16.95
15.24
13.58
11.98
10.43
8.89
7.46
6.22
5.23
4.39
3.45
2.14
0.29
-2.00
-4.47
-6.76
-8.72
-10.45
-12.28
-14.58
-17.49
-20.92
-24.56
-28.07
-31.25
-34.13
-36.94
-39.99
-43.59
-47.95
-53.10
-58.79
-64.46
-69.25
-72.20
-72.49
-69.72
-64.10
-56.34
-47.48
-38.53
-30.20
-22.87
-16.54
-11.02
-6.05
-1.41
3.03
7.31
11.38
15.15
18.58
21.69
24.59
27.43
30.28
33.16
35.97
38.55
40.79
42.63
44.08
45.16
45.84
46.02
45.58
44.45
42.71
40.61
38.51
36.69
35.33
34.31
33.38
32.26
30.82
29.13
27.44
26.00
24.92
24.10
23.30
22.29
20.98
19.44
17.85
16.38
15.10
13.92
12.71
11.29
9.54
7.42
4.95
2.27
-0.44
-2.99
-5.24
-7.22
-9.12
-11.22
-13.79
-16.85
-20.18
-23.44
-26.25
-28.52
-30.47
-32.54
-35.27
-38.97
-43.67
-49.07
-54.70
-59.91
-64.04
-66.38
-66.30
-63.34
-57.45
-49.07
-39.13
-28.79
-19.20
-11.07
-4.65
0.24
3.98
6.79
8.72
9.65
9.53
8.48
6.96
5.56
4.86
5.14
6.42
8.44
10.84
13.33
15.73
17.96
19.92
21.53
22.68
23.32
23.43
23.05
22.24
21.13
19.86
18.56
17.33
16.19
15.08
13.92
12.74
11.64
10.81
10.34
10.13
9.89
9.25
7.99
6.11
3.85
1.52
-0.67
-2.76
-4.91
-7.32
-10.05
-13.00
-15.96
-18.76
-21.33
-23.74
-26.22
-29.01
-32.36
-36.50
-41.58
-47.66
-54.60
-61.94
-68.83
-74.21
-76.97
-76.37
-72.28
-65.28
-56.49
-47.10
-38.02
-29.68
-22.04
-14.86
-7.92
-1.22
5.09
10.81
15.85
20.20
23.94
27.17
29.97
32.38
34.44
36.30
38.10
40.03
42.21
44.65
47.25
49.78
51.95
53.46
54.16
54.04
53.27
52.14
50.96
49.94
49.20
48.71
48.39
48.10
47.65
46.89
45.68
43.98
41.87
39.54
37.25
35.16
33.33
31.62
29.88
27.96
25.91
23.87
21.97
20.19
18.41
16.39
14.04
11.43
8.79
6.42
4.52
3.13
2.10
1.18
0.11
-1.26
-3.05
-5.22
-7.68
-10.31
-12.95
-15.52
-18.02
-20.58
-23.41
-26.71
-30.56
-34.90
-39.50
-44.06
-48.36
-52.34
-56.17
-60.23
-64.97
-70.73
-77.50
-84.80
-91.58
-96.46
-98.07
-95.53
-88.74
-78.53
-66.38
-53.89
-42.29
-32.12
-23.30
-15.28
-7.54
0.24
8.01
15.49
22.31
28.19
33.02
36.91
40.02
42.56
44.65
46.35
47.72
48.83
49.80
50.74
51.62
52.23
52.28
51.53
49.90
47.60
44.98
42.42
40.21
38.43
37.07
36.01
35.16
34.43
33.75
32.98
32.01
30.71
29.05
27.10
25.00
22.90
20.84
18.86
16.96
15.15
13.53
12.16
11.06
10.09
9.01
7.54
5.50
2.87
-0.19
-3.43
-6.62
-9.67
-12.67
-15.81
-19.30
-23.25
-27.61
-32.13
-36.55
-40.68
-44.55
-48.44
-52.82
-58.17
-64.79
-72.58
-80.95
-88.83
-94.91
-97.89
-96.92
-91.85
-83.32
-72.55
-60.98
-49.74
-39.50
-30.30
-21.78
-13.46
-4.95
3.90
12.98
21.97
30.44
37.92
44.06
48.63
51.66
53.39
54.26
54.73
55.19
55.83
56.60
57.33
57.76
57.66
56.93
55.56
53.66
51.37
48.86
46.36
44.05
42.05
40.34
38.81
37.24
35.51
33.57
31.55
29.59
27.82
26.26
24.83
23.44
22.02
20.56
19.03
17.40
15.64
13.77
11.87
10.15
8.79
7.83
7.20
6.66
5.95
4.92
3.52
1.81
-0.13
-2.26
-4.57
-7.04
-9.67
-12.42
-15.27
-18.23
-21.34
-24.63
-28.11
-31.68
-35.26
-38.77
-42.27
-45.96
-50.16
-55.21
-61.33
-68.39
-75.85
-82.69
-87.64
-89.49
-87.48
-81.58
-72.52
-61.56
-50.13
-39.38
-29.91
-21.80
-14.79
-8.49
-2.62
2.97
8.33
13.40
18.08
22.22
25.63
28.21
29.94
30.99
31.69
32.36
33.25
34.50
36.07
37.89
39.89
41.98
44.05
45.97
47.51
48.38
48.36
47.32
45.31
42.59
39.54
36.53
33.78
31.32
29.06
26.88
24.76
22.79
21.17
19.98
19.19
18.64
18.09
17.44
16.74
16.15
15.85
15.87
16.07
16.21
16.05
15.50
14.65
13.73
12.96
12.42
12.07
11.73
11.22
10.38
9.19
7.73
6.12
4.49
2.85
1.17
-0.68
-2.75
-5.07
-7.60
-10.30
-13.17
-16.23
-19.51
-22.98
-26.54
-30.08
-33.58
-37.21
-41.26
-46.14
-52.13
-59.33
-67.44
-75.73
-83.14
-88.41
-90.47
-88.71
-83.24
-74.83
-64.73
-54.21
-44.27
-35.37
-27.47
-20.17
-13.02
-5.70
1.81
9.23
16.12
22.05
26.80
30.40
33.11
35.27
37.11
38.75
40.18
41.46
42.67
43.93
45.29
46.63
47.67
48.08
47.64
46.32
44.35
42.13
40.06
38.37
37.09
36.01
34.86
33.42
31.65
29.71
27.82
26.19
24.90
23.88
23.02
22.22
21.41
20.60
19.78
18.92
18.05
17.20
16.46
15.91
15.55
15.28
14.87
14.13
12.93
11.29
9.32
7.18
5.00
2.84
0.71
-1.40
-3.54
-5.74
-8.00
-10.33
-12.71
-15.17
-17.75
-20.54
-23.58
-26.85
-30.18
-33.32
-36.11
-38.51
-40.70
-43.00
-45.80
-49.37
-53.84
-59.09
-64.70
-69.98
-73.97
-75.66
-74.26
-69.55
-61.95
-52.50
-42.45
-32.90
-24.47
-17.28
-11.11
-5.60
-0.51
4.24
8.63
12.56
15.99
18.94
21.49
23.71
25.67
27.44
29.12
30.77
32.49
34.34
36.30
38.28
40.09
41.50
42.30
42.38
41.75
40.62
39.24
37.90
36.80
35.96
35.29
34.61
33.69
32.36
30.50
28.13
25.33
22.33
19.38
16.69
14.32
12.12
9.80
7.04
3.65
-0.30
-4.53
-8.68
-12.51
-15.97
-19.15
-22.25
-25.39
-28.58
-31.69
-34.55
-37.09
-39.29
-41.29
-43.28
-45.45
-47.96
-50.92
-54.42
-58.42
-62.66
-66.59
-69.36
-70.05
-67.87
-62.65
-54.86
-45.57
-36.02
-27.22
-19.62
-13.08
-7.23
-1.70
3.57
8.34
12.31
15.30
17.42
19.00
20.46
22.10
23.99
26.02
28.07
30.08
32.04
34.01
35.91
37.54
38.61
38.88
38.31
37.06
35.42
33.65
31.90
30.16
28.35
26.42
24.36
22.21
20.03
17.84
15.62
13.31
10.89
8.27
5.25
1.55
-3.28
-9.60
-17.44
-26.38
-35.62
-44.23
-51.55
-57.32
-61.59
-64.40
-65.60
-64.78
-61.50
-55.58
-47.30
-37.34
-26.53
-15.67
-5.39
3.81
11.49
17.30
21.06
22.87
23.03
21.83
19.42
15.60
10.02
2.42
-7.12
-17.99
-29.20
-39.61
-48.26
-54.70
-59.04
-61.86
-63.89
-65.74
-67.71
-69.67
-71.17
-71.51
-69.98
-65.93
-58.81
-48.33
-34.40
-17.20
2.95
25.64
50.39
76.47
102.59
126.70
146.24
158.91
163.65
161.22
153.89
144.38
134.49
124.34
112.68
98.10
80.39
61.04
42.79
28.23
18.57
13.28
10.55
8.41
5.66
2.22
-1.32
-4.26
-6.24
-7.49
-8.57
-10.00
-11.97
-14.28
-16.47
-18.07
-18.84
-18.85
-18.48
-18.16
-18.25
-18.85
-19.84
-20.97
-22.02
-22.85
-23.47
-23.99
-24.56
-25.31
-26.38
-27.85
-29.79
-32.30
-35.39
-39.02
-42.89
-46.45
-48.93
-49.54
-47.75
-43.48
-37.19
-29.75
-22.17
-15.21
-9.27
-4.37
-0.26
3.25
6.28
8.73
10.51
11.60
12.13
12.39
12.72
13.46
14.73
16.47
18.41
20.28
21.84
23.05
24.00
24.81
25.48
25.88
25.78
25.05
23.74
22.14
20.61
19.42
18.59
17.91
17.06
15.79
14.02
11.86
9.52
7.21
5.06
3.07
1.16
-0.82
-3.00
-5.46
-8.22
-11.20
-14.31
-17.45
-20.50
-23.36
-25.98
-28.43
-30.86
-33.54
-36.76
-40.73
-45.41
-50.48
-55.33
-59.14
-61.07
-60.51
-57.31
-51.79
-44.71
-36.99
-29.42
-22.47
-16.23
-10.54
-5.21
-0.19
4.41
8.45
11.75
14.31
16.21
17.65
18.82
19.89
20.98
22.16
23.41
24.72
26.03
27.24
28.21
28.78
28.79
28.19
27.09
25.69
24.30
23.16
22.32
21.76
21.30
20.77
20.09
19.27
18.37
17.47
16.57
15.68
14.74
13.78
12.81
11.85
10.94
10.01
8.99
7.75
6.17
4.23
1.94
-0.62
-3.32
-5.96
-8.38
-10.43
-12.07
-13.40
-14.62
-16.02
-17.82
-20.15
-22.97
-26.09
-29.24
-32.16
-34.72
-36.96
-39.14
-41.69
-45.07
-49.59
-55.24
-61.60
-67.82
-72.82
-75.54
-75.25
-71.74
-65.38
-56.96
-47.52
-37.99
-29.07
-21.09
-14.03
-7.64
-1.58
4.37
10.29
16.02
21.28
25.73
29.14
31.49
33.03
34.11
35.08
36.17
37.39
38.66
39.84
40.86
41.66
42.19
42.35
42.03
41.17
39.81
38.14
36.37
34.73
33.32
32.10
30.97
29.82
28.59
27.29
25.98
24.75
23.65
22.75
22.06
21.57
21.22
20.92
20.53
19.97
19.18
18.22
17.19
16.21
15.33
14.57
13.90
13.24
12.56
11.86
11.16
10.45
9.75
9.01
8.18
7.23
6.13
4.92
3.65
2.43
1.26
0.12
-1.11
-2.55
-4.32
-6.43
-8.73
-11.04
-13.16
-15.00
-16.62
-18.22
-19.98
-22.03
-24.40
-27.00
-29.72
-32.43
-35.09
-37.70
-40.28
-42.91
-45.78
-49.16
-53.35
-58.53
-64.50
-70.58
-75.63
-78.37
-77.80
-73.60
-66.24
-56.84
-46.83
-37.46
-29.46
-22.98
-17.68
-12.95
-8.28
-3.31
2.03
7.61
13.14
18.30
22.80
26.45
29.21
31.11
32.34
33.13
33.77
34.52
35.55
36.90
38.41
39.82
40.83
41.21
40.92
40.06
38.93
37.82
37.03
36.65
36.65
36.81
36.86
36.61
35.99
35.07
33.98
32.84
31.71
30.57
29.42
28.25
27.07
25.90
24.61
23.07
21.11
18.69
15.98
13.25
10.80
8.82
7.32
6.14
5.06
3.93
2.71
1.45
0.19
-1.08
-2.41
-3.87
-5.49
-7.19
-8.86
-10.37
-11.68
-12.84
-14.02
-15.41
-17.20
-19.45
-22.09
-24.92
-27.64
-30.00
-31.87
-33.36
-34.75
-36.47
-38.92
-42.40
-47.04
-52.63
-58.65
-64.29
-68.48
-70.24
-68.85
-64.17
-56.71
-47.52
-37.83
-28.71
-20.82
-14.32
-8.94
-4.24
0.23
4.79
9.48
14.20
18.66
22.54
25.61
27.78
29.13
29.89
30.34
30.73
31.25
31.97
32.90
33.93
34.93
35.70
36.07
35.92
35.22
34.07
32.64
31.08
29.55
28.11
26.71
25.33
23.97
22.71
21.66
20.90
20.45
20.19
19.92
19.44
18.64
17.53
16.25
14.94
13.72
12.61
11.54
10.48
9.39
8.30
7.28
6.33
5.46
4.60
3.74
2.86
2.03
1.27
0.57
-0.20
-1.17
-2.48
-4.14
-6.07
-8.03
-9.84
-11.36
-12.61
-13.73
-14.94
-16.46
-18.40
-20.81
-23.60
-26.58
-29.54
-32.28
-34.73
-37.02
-39.43
-42.40
-46.31
-51.27
-56.96
-62.60
-67.10
-69.37
-68.58
-64.52
-57.56
-48.59
-38.71
-29.01
-20.31
-13.01
-7.13
-2.37
1.74
5.65
9.62
13.68
17.61
21.05
23.75
25.58
26.66
27.28
27.78
28.46
29.46
30.73
32.09
33.29
34.08
34.34
34.07
33.38
32.40
31.22
29.88
28.37
26.75
25.09
23.50
22.05
20.72
19.47
18.25
17.07
15.94
14.96
14.14
13.45
12.83
12.18
11.43
10.59
9.68
8.75
7.83
6.89
5.89
4.75
3.41
1.87
0.20
-1.47
-3.04
-4.52
-6.00
-7.69
-9.75
-12.28
-15.17
-18.20
-21.11
-23.69
-25.92
-27.96
-30.09
-32.64
-35.92
-40.06
-44.92
-50.09
-54.79
-58.09
-59.12
-57.32
-52.62
-45.52
-36.97
-28.01
-19.60
-12.33
-6.34
-1.46
2.65
6.34
9.78
12.97
15.82
18.17
19.99
21.33
22.39
23.37
24.46
25.75
27.18
28.65
30.05
31.30
32.37
33.27
33.95
34.27
34.07
33.24
31.83
30.05
28.27
26.80
25.83
25.26
24.83
24.22
23.21
21.77
20.03
18.22
16.57
15.23
14.24
13.52
12.93
12.29
11.44
10.38
9.16
7.94
6.86
5.92
4.99
3.87
2.37
0.38
-2.02
-4.65
-7.20
-9.35
-10.87
-11.64
-11.82
-11.74
-11.89
-12.68
-14.31
-16.68
-19.51
-22.47
-25.38
-28.19
-31.00
-33.93
-37.09
-40.55
-44.45
-48.88
-53.74
-58.60
-62.59
-64.63
-63.79
-59.62
-52.47
-43.35
-33.56
-24.29
-16.25
-9.60
-4.10
0.65
4.99
9.08
12.91
16.39
19.42
21.95
23.98
25.57
26.84
27.86
28.73
29.49
30.21
30.95
31.75
32.60
33.41
34.00
34.17
33.79
32.87
31.56
30.08
28.68
27.54
26.68
26.05
25.47
24.81
23.94
22.89
21.67
20.39
19.09
17.81
16.55
15.36
14.27
13.28
12.36
11.45
10.43
9.19
7.70
6.02
4.23
2.46
0.74
-0.93
-2.62
-4.36
-6.16
-7.96
-9.64
-11.10
-12.33
-13.38
-14.38
-15.44
-16.67
-18.10
-19.76
-21.65
-23.78
-26.17
-28.75
-31.41
-34.05
-36.70
-39.61
-43.19
-47.80
-53.51
-59.83
-65.70
-69.77
-70.78
-68.05
-61.72
-52.69
-42.32
-31.93
-22.44
-14.16
-6.96
-0.45
5.81
12.09
18.50
24.97
31.34
37.44
43.17
48.48
53.43
58.16
62.78
67.40
72.05
76.71
81.41
86.20
91.17
96.34
101.63
106.80
111.55
115.61
118.84
121.28
123.09
124.43
125.37
125.86
125.67
124.49
121.90
117.27
109.80
98.57
82.96
63.05
39.84
15.17
-8.94
-30.98
-50.50
-68.12
-84.99
-102.05
-119.45
-136.45
-151.77
-164.11
-172.56
-176.76
-176.79
-173.07
-166.23
-157.09
-146.52
-135.25
-123.64
-111.46
-98.09
-82.84
-65.42
-46.37
-27.08
-9.51
4.30
12.87
15.60
12.76
5.29
-5.64
-18.91
-33.69
-49.43
-65.92
-83.06
-100.74
-118.55
-135.55
-150.29
-161.04
-166.28
-165.29
-158.45
-147.23
-133.80
-120.35
-108.51
-98.97
-91.45
-84.97
-78.29
-70.36
-60.68
-49.41
-37.29
-25.29
-14.33
-4.94
2.80
9.32
15.40
22.04
30.22
40.65
53.56
68.53
84.61
100.60
115.48
128.55
139.65
148.90
156.56
162.84
167.80
171.34
173.25
173.23
170.96
166.27
159.23
150.24
139.95
129.06
118.10
107.34
96.80
86.43
76.31
66.70
58.03
50.71
44.97
40.64
37.11
33.34
28.09
20.35
9.73
-3.24
-17.15
-30.27
-41.16
-49.19
-54.80
-59.21
-63.88
-70.05
-78.30
-88.50
-99.91
-111.31
-121.23
-128.24
-131.26
-129.87
-124.43
-115.95
-105.75
-95.11
-84.92
-75.61
-67.18
-59.37
-51.87
-44.46
-37.14
-30.14
-23.77
-18.33
-13.91
-10.33
-7.24
-4.23
-1.03
2.40
5.91
9.29
12.37
15.06
17.37
19.37
21.14
22.78
24.33
25.78
27.07
28.14
28.91
29.39
29.65
29.79
29.89
29.94
29.91
29.69
29.23
28.52
27.61
26.55
25.34
23.91
22.11
19.81
16.95
13.63
10.09
6.71
3.77
1.43
-0.45
-2.20
-4.28
-7.06
-10.67
-14.96
-19.60
-24.25
-28.65
-32.73
-36.59
-40.43
-44.53
-49.20
-54.63
-60.72
-66.94
-72.22
-75.21
-74.57
-69.49
-60.05
-47.17
-32.39
-17.38
-3.46
8.62
18.67
26.87
33.56
39.09
43.77
47.82
51.34
54.33
56.72
58.39
59.27
59.45
59.16
58.70
58.40
58.50
59.10
60.12
61.31
62.31
62.70
62.14
60.53
57.98
54.84
51.50
48.20
45.02
41.79
38.31
34.42
30.16
25.73
21.35
17.21
13.32
9.51
5.60
1.40
-3.09
-7.75
-12.44
-17.04
-21.57
-26.15
-31.02
-36.48
-42.78
-50.08
-58.26
-66.83
-74.91
-81.25
-84.57
-83.85
-78.71
-69.48
-57.22
-43.35
-29.27
-16.06
-4.28
6.01
15.08
23.28
30.89
37.94
44.31
49.76
54.13
57.38
59.63
61.14
62.14
62.84
63.39
63.89
64.45
65.11
65.88
66.62
67.14
67.23
66.72
65.64
64.10
62.31
60.47
58.66
56.91
55.17
53.42
51.68
49.99
48.44
47.08
45.95
45.05
44.32
43.69
43.06
42.39
41.66
40.85
39.96
38.96
37.78
36.37
34.70
32.84
30.87
28.90
27.01
25.13
23.20
21.09
18.71
16.03
13.06
9.84
6.40
2.80
-0.96
-4.89
-9.08
-13.65
-18.73
-24.33
-30.34
-36.47
-42.42
-47.99
-53.18
-58.24
-63.57
-69.62
-76.75
-85.09
-94.41
-103.98
-112.54
-118.55
-120.44
-117.20
-108.62
-95.53
-79.44
-62.23
-45.57
-30.69
-18.18
-8.08
0.01
6.80
13.13
19.67
26.79
34.36
41.80
48.37
53.40
56.60
58.12
58.54
58.65
59.16
60.61
63.09
66.29
69.51
71.80
72.27
70.30
65.77
59.09
51.11
42.82
35.14
28.66
23.58
19.69
16.55
13.66
10.59
7.12
3.10
-1.57
-7.01
-13.31
-20.45
-28.24
-36.28
-44.13
-51.31
-57.46
-62.34
-65.80
-67.76
-68.25
-67.46
-65.68
-63.32
-60.73
-58.18
-55.87
-54.03
-52.91
-52.83
-54.07
-56.72
-60.56
-65.02
-69.26
-72.27
-73.09
-71.03
-65.62
-56.71
-44.34
-28.71
-10.24
10.19
31.20
51.05
67.90
80.41
88.10
91.54
91.99
90.95
89.60
88.51
87.64
86.60
84.92
82.27
78.56
73.88
68.48
62.64
56.62
50.60
44.74
39.22
34.20
29.84
26.13
22.86
19.64
16.07
11.89
7.13
2.17
-2.42
-6.04
-8.28
-8.98
-8.33
-6.69
-4.64
-2.72
-1.38
-0.88
-1.16
-1.90
-2.73
-3.28
-3.36
-2.98
-2.27
-1.41
-0.61
-0.06
0.02
-0.64
-2.36
-5.45
-10.16
-16.49
-24.20
-32.67
-41.01
-48.13
-53.01
-54.91
-53.66
-49.73
-44.15
-38.19
-33.03
-29.38
-27.37
-26.56
-26.20
-25.45
-23.62
-20.23
-15.16
-8.60
-1.11
6.56
13.58
19.28
23.31
25.69
26.79
27.17
27.51
28.39
30.24
33.03
36.28
39.09
40.40
39.30
35.31
28.63
19.97
10.39
0.96
-7.53
-14.67
-20.50
-25.33
-29.59
-33.48
-36.92
-39.54
-40.89
-40.81
-39.62
-38.06
-37.00
-37.06
-38.37
-40.60
-43.11
-45.18
-46.12
-45.30
-42.29
-37.11
-30.51
-24.04
-19.86
-20.12
-26.29
-38.65
-56.19
-77.04
-98.92
-119.66
-137.33
-150.43
-157.85
-159.12
-154.49
-144.95
-131.97
-117.08
-101.46
-85.68
-69.78
-53.39
-36.17
-18.03
0.67
19.17
36.49
51.74
64.37
74.40
82.41
89.24
95.72
102.25
108.63
114.05
117.34
117.30
113.05
104.29
91.38
75.40
57.88
40.59
25.12
12.68
3.91
-1.15
-2.92
-2.08
0.66
4.67
9.50
14.91
20.92
27.62
35.08
43.06
50.95
57.73
62.22
63.46
60.94
54.68
45.01
32.27
16.64
-1.87
-23.18
-46.96
-72.52
-98.90
-124.96
-149.44
-170.91
-187.71
-198.20
-201.21
-196.52
-185.18
-169.28
-151.38
-133.66
-117.41
-102.85
-89.54
-76.83
-64.27
-51.70
-39.09
-26.28
-13.00
1.04
15.82
30.89
45.36
58.21
68.67
76.55
82.27
86.74
90.99
95.77
101.32
107.32
112.97
117.20
119.06
118.03
114.29
108.85
103.31
99.41
98.25
99.76
102.42
103.67
100.74
91.74
76.49
56.57
34.82
14.25
-2.79
-14.94
-21.62
-22.66
-18.08
-8.19
6.24
24.07
44.07
65.46
88.12
112.44
138.62
165.96
192.50
215.27
231.03
237.19
232.35
216.62
191.37
158.91
122.05
83.63
46.20
11.78
-18.33
-43.42
-63.41
-78.67
-89.85
-97.59
-102.31
-104.06
-102.80
-98.70
-92.51
-85.71
-80.04
-76.98
-77.09
-79.71
-83.26
-85.91
-86.32
-84.13
-79.82
-74.14
-67.46
-59.43
-49.25
-36.30
-20.81
-4.14
11.60
24.42
33.25
38.34
41.05
43.09
45.72
49.15
52.58
54.55
53.59
48.67
39.44
26.27
10.08
-7.85
-26.01
-42.95
-57.50
-69.06
-77.67
-83.84
-88.27
-91.44
-93.41
-93.85
-92.36
-88.79
-83.48
-77.05
-70.18
-63.31
-56.53
-49.73
-42.84
-35.98
-29.40
-23.34
-17.87
-12.84
-7.97
-3.08
1.83
6.51
10.66
13.99
16.48
18.33
19.86
21.45
23.38
25.81
28.81
32.22
35.67
38.53
40.12
39.88
37.70
34.04
29.70
25.46
21.57
17.59
12.45
5.00
-5.51
-19.08
-34.97
-51.90
-68.51
-83.55
-96.07
-105.55
-111.91
-115.57
-117.31
-118.12
-118.83
-120.00
-121.78
-124.04
-126.54
-128.97
-131.00
-132.13
-131.70
-128.98
-123.37
-114.65
-103.13
-89.56
-74.89
-60.03
-45.65
-32.07
-19.37
-7.41
3.89
14.59
24.58
33.77
42.02
49.33
55.77
61.46
66.46
70.64
73.81
75.87
77.10
78.22
80.07
83.26
87.62
92.20
95.58
96.54
94.60
90.28
84.81
79.60
75.80
74.32
75.97
81.68
92.29
107.74
126.51
145.37
160.11
166.81
163.09
148.92
126.32
98.40
68.21
37.94
8.85
-18.37
-43.02
-64.07
-80.37
-91.06
-96.01
-96.04
-92.75
-88.13
-84.01
-81.66
-81.75
-84.47
-89.79
-97.53
-107.24
-117.98
-128.22
-136.01
-139.51
-137.60
-130.33
-118.87
-105.11
-91.06
-78.15
-66.95
-57.21
-48.14
-38.92
-29.08
-18.66
-8.20
1.55
9.94
16.63
21.77
25.80
29.31
32.79
36.59
40.80
45.38
50.18
54.96
59.44
63.32
66.29
68.17
68.92
68.68
67.75
66.41
64.91
63.32
61.63
59.71
57.46
54.87
51.98
48.94
45.89
42.93
40.09
37.28
34.40
31.30
27.87
24.07
19.90
15.38
10.54
5.37
-0.15
-6.07
-12.36
-18.98
-25.78
-32.63
-39.48
-46.44
-53.74
-61.63
-70.25
-79.53
-89.14
-98.69
-107.80
-116.35
-124.50
-132.71
-141.58
-151.55
-162.52
-173.64
-183.25
-189.20
-189.51
-183.04
-169.89
-151.45
-129.89
-107.45
-85.81
-65.78
-47.39
-30.16
-13.46
3.26
20.21
37.33
54.28
70.56
85.67
99.34
111.61
122.77
133.26
143.43
153.46
163.22
172.45
180.87
188.27
194.58
199.79
203.92
206.94
208.76
209.40
209.05
208.03
206.75
205.40
203.82
201.33
196.87
189.28
177.64
161.63
141.63
118.76
94.63
71.05
49.64
31.50
16.93
5.46
-3.94
-12.49
-21.12
-30.23
-39.71
-49.24
-58.67
-68.21
-78.35
-89.52
-101.62
-113.82
-124.66
-132.49
-136.08
-134.92
-129.36
-120.45
-109.47
-97.57
-85.54
-73.65
-61.84
-49.82
-37.37
-24.52
-11.57
0.93
12.49
22.92
32.51
41.96
52.08
63.28
75.34
87.32
97.89
105.80
110.28
111.32
109.51
105.75
100.93
95.68
90.29
84.78
79.08
73.20
67.33
61.73
56.62
52.02
47.66
43.11
38.01
32.22
25.99
19.77
14.02
9.02
4.78
1.12
-2.07
-4.73
-6.58
-7.38
-7.07
-6.01
-5.04
-5.35
-8.17
-14.33
-23.97
-36.44
-50.53
-64.95
-78.73
-91.48
-103.14
-113.66
-122.59
-129.07
-132.09
-130.96
-125.63
-116.73
-105.37
-92.76
-79.96
-67.81
-56.94
-47.82
-40.79
-35.90
-32.80
-30.73
-28.59
-25.22
-19.76
-11.94
-2.15
8.62
19.16
28.43
35.82
41.19
44.69
46.53
46.89
45.86
43.63
40.50
36.94
33.47
30.48
28.13
26.33
24.86
23.46
22.02
20.61
19.33
18.26
17.25
15.89
13.58
9.71
3.94
-3.65
-12.40
-21.15
-28.53
-33.27
-34.61
-32.50
-27.57
-20.84
-13.33
-5.69
1.87
9.44
17.12
24.81
32.08
38.28
42.75
45.07
45.20
43.49
40.57
37.16
33.89
31.07
28.68
26.47
24.14
21.58
18.99
16.85
15.65
15.64
16.58
17.81
18.50
18.02
16.24
13.59
10.94
9.34
9.84
13.28
20.05
29.76
41.05
51.63
58.87
60.62
56.01
45.76
31.82
16.37
1.04
-13.58
-27.63
-41.20
-53.75
-63.95
-70.10
-70.98
-66.40
-57.37
-45.75
-33.53
-22.24
-12.57
-4.52
2.32
8.29
13.49
17.73
20.77
22.47
23.01
22.71
21.98
21.06
19.95
18.46
16.32
13.39
9.75
5.69
1.64
-2.06
-5.22
-7.89
-10.29
-12.68
-15.20
-17.81
-20.32
-22.46
-24.06
-25.08
-25.62
-25.80
-25.70
-25.37
-24.85
-24.32
-24.12
-24.72
-26.58
-30.06
-35.25
-41.92
-49.46
-56.91
-63.08
-66.77
-67.15
-63.96
-57.61
-49.07
-39.46
-29.75
-20.54
-12.06
-4.35
2.64
8.94
14.53
19.36
23.35
26.36
28.20
28.69
27.71
25.39
22.00
18.03
14.03
10.49
7.77
6.00
5.06
4.71
4.56
4.28
3.70
2.80
1.68
0.45
-0.89
-2.47
-4.60
-7.53
-11.42
-16.26
-21.83
-27.84
-34.04
-40.31
-46.64
-53.17
-60.12
-67.67
-75.84
-84.27
-92.15
-98.15
-100.76
-98.64
-91.13
-78.48
-61.79
-42.82
-23.42
-5.19
10.78
23.91
34.12
41.60
46.67
49.71
51.02
50.85
49.42
46.92
43.57
39.65
35.42
31.13
26.94
22.97
19.28
15.95
12.98
10.33
7.80
5.07
1.84
-2.14
-6.88
-12.20
-17.80
-23.41
-28.88
-34.19
-39.38
-44.33
-48.76
-52.24
-54.31
-54.72
-53.49
-51.00
-47.86
-44.80
-42.38
-40.82
-39.81
-38.59
-36.13
-31.49
-24.20
-14.41
-2.92
9.09
20.40
30.11
37.75
43.34
47.16
49.61
51.03
51.68
51.76
51.38
50.65
49.63
48.33
46.73
44.83
42.65
40.35
38.11
36.17
34.62
33.40
32.27
30.92
29.10
26.69
23.80
20.64
17.42
14.29
11.28
8.27
5.08
1.59
-2.24
-6.29
-10.41
-14.39
-18.17
-21.77
-25.40
-29.36
-33.97
-39.43
-45.65
-52.11
-57.90
-61.84
-62.83
-60.20
-54.01
-45.01
-34.48
-23.77
-13.95
-5.64
1.02
6.17
10.05
12.86
14.76
15.87
16.33
16.24
15.72
14.80
13.46
11.70
9.54
7.08
4.49
2.03
-0.12
-1.88
-3.38
-4.86
-6.59
-8.73
-11.12
-13.35
-14.87
-15.18
-14.04
-11.56
-8.11
-4.16
-0.14
3.68
7.13
10.06
12.36
13.89
14.52
14.15
12.66
9.85
5.50
-0.51
-7.96
-16.14
-23.83
-29.57
-32.12
-30.79
-25.71
-17.71
-8.03
2.06
11.54
19.75
26.44
31.62
35.48
38.25
40.16
41.36
41.94
41.93
41.34
40.27
38.90
37.46
36.13
35.06
34.26
33.68
33.19
32.71
32.14
31.38
30.34
28.87
26.86
24.31
21.33
18.16
15.10
12.37
10.02
7.92
5.81
3.39
0.42
-3.19
-7.32
-11.69
-15.92
-19.61
-22.55
-24.79
-26.61
-28.53
-31.09
-34.74
-39.72
-45.94
-52.93
-59.80
-65.33
-68.24
-67.49
-62.69
-54.27
-43.38
-31.61
-20.47
-10.96
-3.46
2.22
6.51
9.76
12.09
13.38
13.51
12.48
10.59
8.35
6.22
4.48
3.13
1.91
0.52
-1.22
-3.22
-5.24
-6.98
-8.25
-8.99
-9.29
-9.19
-8.62
-7.38
-5.17
-1.81
2.74
8.23
14.18
19.97
24.94
28.61
30.68
31.15
30.22
28.21
25.40
21.96
17.94
13.30
7.93
1.74
-5.32
-13.15
-21.35
-29.26
-35.91
-40.28
-41.54
-39.33
-33.90
-25.99
-16.69
-7.09
1.91
9.75
16.15
21.01
24.39
26.41
27.26
27.25
26.73
26.04
25.42
24.93
24.55
24.20
23.87
23.67
23.83
24.75
26.91
30.78
36.67
44.56
53.95
63.88
73.13
80.64
85.89
89.14
91.28
93.39
96.28
100.09
104.30
108.11
110.73
111.74
111.14
109.03
105.46
100.16
92.59
82.05
68.00
50.21
28.94
5.04
-20.14
-44.86
-67.32
-86.01
-100.02
-109.12
-113.79
-114.88
-113.41
-110.39
-106.62
-102.75
-99.24
-96.35
-94.18
-92.68
-91.63
-90.75
-89.69
-88.16
-85.96
-83.07
-79.55
-75.62
-71.46
-67.25
-63.04
-58.86
-54.78
-50.98
-47.72
-45.31
-43.95
-43.61
-44.04
-44.84
-45.61
-46.12
-46.38
-46.62
-47.17
-48.23
-49.82
-51.69
-53.36
-54.34
-54.14
-52.48
-49.32
-44.90
-39.71
-34.38
-29.47
-25.31
-21.79
-18.31
-13.96
-7.78
0.82
11.79
24.36
37.32
49.36
59.51
67.39
73.15
77.33
80.60
83.66
87.12
91.44
96.80
102.98
109.30
114.78
118.36
119.35
117.59
113.47
107.72
101.09
94.16
87.18
80.16
72.88
65.10
56.57
47.11
36.62
25.16
12.92
0.24
-12.44
-24.62
-35.89
-45.93
-54.65
-62.06
-68.29
-73.46
-77.67
-81.00
-83.61
-85.80
-87.99
-90.56
-93.67
-97.01
-99.80
-100.91
-99.30
-94.32
-86.00
-75.04
-62.49
-49.44
-36.70
-24.78
-13.96
-4.48
3.37
9.36
13.48
16.02
17.62
18.99
20.71
23.02
25.82
28.80
31.64
34.18
36.47
38.75
41.45
45.04
50.05
56.90
65.74
76.27
87.60
98.36
107.04
112.45
114.20
112.75
109.26
105.07
101.21
98.06
95.35
92.49
88.97
84.54
79.32
73.52
67.23
60.26
52.20
42.57
31.06
17.64
2.59
-13.54
-29.93
-45.57
-59.27
-69.89
-76.53
-78.86
-77.20
-72.50
-66.09
-59.29
-53.22
-48.56
-45.64
-44.41
-44.64
-46.02
-48.24
-51.05
-54.28
-57.74
-61.25
-64.57
-67.48
-69.83
-71.57
-72.69
-73.29
-73.41
-73.14
-72.59
-71.87
-71.07
-70.21
-69.15
-67.62
-65.26
-61.69
-56.69
-50.27
-42.72
-34.47
-26.04
-17.82
-10.06
-2.88
3.63
9.31
13.89
17.13
18.92
19.31
18.60
17.07
14.89
12.13
8.69
4.51
-0.38
-5.85
-11.67
-17.48
-22.82
-27.03
-29.37
-29.19
-26.14
-20.41
-12.70
-4.02
4.59
12.38
18.95
24.22
28.22
30.97
32.45
32.72
32.02
30.82
29.70
29.17
29.41
30.24
31.18
31.72
31.50
30.50
28.95
27.21
25.56
24.05
22.53
20.72
18.37
15.36
11.73
7.64
3.39
-0.76
-4.58
-8.00
-11.11
-14.16
-17.40
-21.00
-24.92
-28.91
-32.59
-35.62
-37.75
-38.89
-39.04
-38.29
-36.71
-34.48
-31.86
-29.18
-26.62
-24.14
-21.36
-17.67
-12.48
-5.54
2.91
12.17
21.29
29.43
36.14
41.38
45.44
48.64
51.14
52.88
53.71
53.56
52.55
51.05
49.47
48.15
47.23
46.64
46.18
45.67
45.03
44.23
43.30
42.22
41.00
39.58
37.94
36.11
34.07
31.86
29.49
27.02
24.54
22.13
19.86
17.73
15.67
13.60
11.44
9.15
6.76
4.32
1.85
-0.67
-3.26
-5.98
-8.81
-11.64
-14.30
-16.57
-18.26
-19.33
-19.92
-20.31
-20.86
-21.92
-23.75
-26.46
-30.05
-34.36
-39.03
-43.45
-46.86
-48.51
-47.87
-44.88
-39.95
-33.86
-27.47
-21.43
-16.06
-11.30
-6.92
-2.71
1.32
5.03
8.17
10.53
12.11
13.08
13.70
14.24
14.83
15.46
16.05
16.48
16.70
16.66
16.37
15.80
14.87
13.52
11.69
9.40
6.71
3.75
0.67
-2.32
-5.01
-7.17
-8.62
-9.23
-8.91
-7.64
-5.46
-2.40
1.43
5.87
10.71
15.65
20.40
24.69
28.30
31.13
33.12
34.26
34.53
33.88
32.30
29.79
26.50
22.63
18.50
14.36
10.44
6.77
3.30
-0.15
-3.85
-7.99
-12.69
-17.89
-23.28
-28.36
-32.49
-35.03
-35.51
-33.79
-30.08
-24.91
-19.01
-13.06
-7.60
-2.84
1.23
4.80
8.07
11.14
13.96
16.37
18.25
19.52
20.23
20.57
20.69
20.76
20.87
21.04
21.26
21.47
21.63
21.66
21.52
21.15
20.51
19.61
18.49
17.24
15.99
14.91
14.15
13.79
13.77
13.91
13.97
13.72
13.05
11.98
10.66
9.27
7.94
6.69
5.47
4.18
2.76
1.17
-0.61
-2.58
-4.77
-7.16
-9.71
-12.28
-14.67
-16.69
-18.25
-19.42
-20.46
-21.72
-23.54
-26.10
-29.34
-32.92
-36.30
-38.82
-39.88
-39.08
-36.27
-31.69
-25.81
-19.33
-12.91
-7.05
-2.01
2.18
5.62
8.39
10.55
12.10
13.09
13.65
14.03
14.44
15.01
15.73
16.49
17.18
17.76
18.27
18.81
19.38
19.92
20.25
20.21
19.73
18.86
17.73
16.49
15.24
14.01
12.82
11.67
10.64
9.80
9.21
8.81
8.45
7.95
7.18
6.13
4.90
3.64
2.48
1.51
0.71
0.01
-0.72
-1.53
-2.42
-3.33
-4.17
-4.87
-5.49
-6.18
-7.11
-8.42
-10.10
-11.99
-13.81
-15.32
-16.44
-17.27
-18.07
-19.13
-20.73
-23.02
-26.01
-29.59
-33.47
-37.21
-40.26
-42.06
-42.18
-40.50
-37.26
-33.08
-28.75
-25.00
-22.27
-20.58
-19.53
-18.56
-17.20
-15.32
-13.16
-11.19
-9.87
-9.36
-9.50
-9.96
-10.42
-10.73
-10.97
-11.28
-11.72
-12.17
-12.34
-11.86
-10.42
-7.87
-4.25
0.24
5.28
10.56
15.85
21.03
26.08
30.95
35.51
39.49
42.59
44.59
45.41
45.18
44.18
42.72
41.04
39.22
37.24
35.01
32.49
29.79
27.09
24.59
22.40
20.45
18.58
16.58
14.34
11.85
9.22
6.61
4.15
1.90
-0.09
-1.84
-3.41
-4.93
-6.56
-8.48
-10.79
-13.45
-16.18
-18.52
-19.91
-19.88
-18.19
-14.97
-10.61
-5.68
-0.65
4.20
8.81
13.30
17.73
22.10
26.23
29.90
32.96
35.38
37.33
39.11
41.12
43.79
47.45
52.26
58.14
64.71
71.34
77.32
82.01
85.03
86.38
86.34
85.32
83.69
81.74
79.77
78.30
78.06
79.90
84.40
91.62
101.05
111.82
123.16
134.69
146.50
158.74
171.20
182.91
192.16
196.97
195.75
187.92
174.06
155.80
135.17
114.06
93.71
74.71
57.15
40.94
26.06
12.54
0.36
-10.67
-20.95
-30.89
-40.70
-50.26
-59.18
-66.99
-73.46
-78.71
-83.23
-87.66
-92.42
-97.52
-102.46
-106.39
-108.53
-108.45
-106.32
-102.77
-98.65
-94.64
-91.03
-87.77
-84.61
-81.38
-78.12
-75.05
-72.41
-70.28
-68.50
-66.77
-64.81
-62.58
-60.24
-58.11
-56.46
-55.35
-54.60
-53.94
-53.12
-52.06
-50.87
-49.76
-48.91
-48.39
-48.15
-48.03
-47.89
-47.61
-47.13
-46.40
-45.37
-44.06
-42.54
-40.95
-39.49
-38.29
-37.40
-36.71
-36.04
-35.25
-34.35
-33.44
-32.72
-32.28
-32.12
-32.14
-32.24
-32.37
-32.60
-33.06
-33.83
-34.92
-36.20
-37.52
-38.74
-39.76
-40.61
-41.24
-41.59
-41.41
-40.36
-38.15
-34.63
-29.97
-24.61
-19.11
-13.98
-9.47
-5.59
-2.21
0.41
2.01
2.39
1.57
-0.24
-2.60
-5.03
-7.06
-8.46
-9.52
-10.66
-12.14
-13.97
-15.97
-17.90
-19.58
-20.93
-21.99
-23.49
-26.00
-29.58
-33.89
-38.45
-42.91
-46.97
-50.32
-52.64
-55.53
-60.16
-66.73
-74.49
-82.57
-90.35
-97.31
-102.85
-106.45
-111.53
-120.74
-134.59
-151.49
-169.39
-186.83
-202.84
-216.61
-227.54
-241.14
-261.18
-287.49
-316.36
-343.62
-366.76
-385.13
-398.88
-408.11
-419.26
-434.31
-448.80
-454.50
-446.05
-425.01
-398.89
-376.84
-319.44
-209.58
-58.11
102.79
244.16
352.76
427.54
473.58
499.26
514.23
519.46
515.14
502.79
485.26
464.65
442.74
419.93
397.61
377.62
355.48
327.79
294.67
260.47
230.96
210.77
201.91
203.57
211.96
217.75
212.99
193.58
160.98
120.54
79.04
42.70
16.32
2.44
-0.62
3.92
12.77
23.26
33.26
41.25
46.25
48.20
47.51
44.15
38.18
30.14
21.09
12.19
4.32
-2.16
-7.16
-10.76
-13.06
-14.20
-14.34
-13.69
-12.58
-11.41
-10.54
-10.14
-10.29
-11.04
-12.55
-14.95
-18.19
-21.91
-25.53
-28.51
-30.68
-32.32
-34.01
-36.32
-39.32
-42.55
-45.21
-46.54
-46.24
-44.53
-42.04
-39.46
-37.32
-35.80
-34.84
-34.17
-33.48
-32.50
-31.09
-29.24
-27.10
-25.00
-23.29
-22.31
-22.23
-23.00
-24.35
-25.81
-26.85
-26.99
-25.98
-23.76
-20.55
-16.64
-12.33
-7.79
-3.10
1.71
6.54
11.22
15.48
19.04
21.69
23.38
24.26
24.60
24.72
24.83
25.03
25.25
25.32
25.11
24.58
23.83
23.04
22.36
21.87
21.46
20.97
20.20
19.09
17.71
16.33
15.23
14.62
14.46
14.48
14.34
13.73
12.60
11.13
9.58
8.23
7.13
6.16
5.20
4.17
3.11
2.15
1.32
0.52
-0.47
-1.82
-3.56
-5.51
-7.36
-8.89
-10.05
-11.07
-12.25
-13.86
-16.00
-18.56
-21.29
-23.91
-26.18
-27.91
-29.09
-29.88
-30.60
-31.66
-33.33
-35.58
-37.97
-39.79
-40.32
-39.15
-36.34
-32.36
-27.92
-23.60
-19.67
-16.05
-12.47
-8.63
-4.44
-0.01
4.32
8.19
11.31
13.65
15.40
16.85
18.22
19.62
20.94
21.96
22.53
22.65
22.45
22.14
21.92
21.83
21.80
21.70
21.38
20.85
20.16
19.41
18.68
17.99
17.31
16.63
15.97
15.35
14.83
14.37
13.95
13.51
12.98
12.32
11.52
10.60
9.63
8.69
7.83
7.04
6.21
5.22
3.95
2.40
0.71
-0.95
-2.43
-3.67
-4.68
-5.60
-6.57
-7.71
-9.13
-10.90
-12.98
-15.27
-17.59
-19.76
-21.72
-23.53
-25.37
-27.48
-30.06
-33.17
-36.71
-40.43
-43.92
-46.72
-48.37
-48.52
-47.08
-44.17
-40.13
-35.43
-30.55
-25.85
-21.55
-17.61
-13.87
-10.08
-6.08
-1.88
2.28
6.06
9.13
11.35
12.85
13.93
14.92
16.03
17.33
18.71
20.05
21.22
22.23
23.09
23.83
24.41
24.72
24.63
24.06
23.06
21.84
20.66
19.75
19.22
18.92
18.61
18.03
17.05
15.72
14.24
12.84
11.65
10.68
9.81
8.88
7.76
6.39
4.79
3.00
1.07
-0.91
-2.84
-4.63
-6.22
-7.56
-8.72
-9.80
-10.97
-12.38
-14.15
-16.27
-18.66
-21.16
-23.64
-26.06
-28.51
-31.20
-34.28
-37.76
-41.41
-44.74
-47.14
-48.11
-47.41
-45.09
-41.48
-37.04
-32.21
-27.30
-22.45
-17.66
-12.86
-7.99
-3.12
1.58
5.87
9.53
12.45
14.62
16.20
17.38
18.37
19.30
20.23
21.16
22.06
22.89
23.54
23.98
24.20
24.26
24.21
24.08
23.84
23.37
22.63
21.59
20.40
19.26
18.38
17.86
17.62
17.43
16.92
15.83
14.06
11.85
9.66
8.03
7.22
7.08
6.94
5.88
3.11
-1.62
-7.84
-14.62
-20.98
-26.44
-31.38
-36.99
-44.84
-56.21
-71.51
-89.86
-109.26
-127.31
-142.10
-153.06
-161.38
-169.35
-179.26
-191.95
-206.05
-218.07
-223.38
-217.53
-197.29
-161.43
-111.47
-52.23
8.35
60.97
98.03
116.98
121.84
121.64
126.09
140.66
163.98
188.96
207.17
213.51
208.70
197.96
187.38
180.21
175.47
169.37
158.09
140.37
118.00
94.90
75.27
62.54
59.32
67.61
88.63
121.59
162.52
204.24
238.08
257.11
258.89
246.25
225.45
202.87
182.10
163.19
144.05
122.77
99.18
74.69
50.96
28.47
6.20
-17.54
-43.75
-71.84
-99.75
-124.68
-144.45
-158.31
-167.12
-172.77
-177.14
-181.27
-184.88
-186.77
-185.52
-180.34
-171.49
-160.18
-148.03
-136.42
-126.05
-116.81
-108.10
-99.15
-89.56
-79.45
-69.42
-60.27
-52.59
-46.54
-41.74
-37.51
-33.21
-28.45
-23.21
-17.72
-12.29
-7.19
-2.61
1.31
4.41
6.48
7.45
7.38
6.60
5.61
4.90
4.73
5.07
5.59
5.87
5.59
4.62
3.08
1.15
-1.02
-3.38
-5.99
-8.97
-12.36
-16.15
-20.22
-24.47
-28.87
-33.52
-38.67
-44.54
-51.24
-58.63
-66.26
-73.42
-79.22
-82.87
-83.81
-81.95
-77.63
-71.51
-64.33
-56.65
-48.72
-40.57
-32.11
-23.44
-14.88
-7.01
-0.43
4.42
7.41
8.73
8.83
8.28
7.61
7.19
7.17
7.57
8.37
9.57
11.19
13.13
15.05
16.38
16.53
15.15
12.26
8.19
3.26
-2.47
-9.28
-17.50
-27.16
-37.79
-48.48
-58.36
-66.87
-73.91
-79.51
-83.55
-85.55
-84.94
-81.41
-75.18
-67.02
-57.82
-48.22
-38.42
-28.32
-17.94
-7.70
1.52
8.71
13.01
14.13
12.45
8.95
4.95
1.85
0.79
2.44
6.89
13.73
22.34
32.05
42.40
53.10
63.96
74.72
84.96
94.14
101.74
107.43
111.18
113.30
114.27
114.66
114.86
115.08
115.29
115.38
115.23
114.83
114.18
113.37
112.34
110.98
109.11
106.56
103.29
99.39
95.10
90.70
86.46
82.52
78.88
75.43
71.94
68.24
64.22
59.91
55.44
51.01
46.76
42.74
38.89
35.01
30.95
26.56
21.84
16.82
11.61
6.24
0.71
-5.03
-10.98
-17.11
-23.25
-29.21
-34.83
-40.06
-45.05
-50.04
-55.32
-61.16
-67.78
-75.30
-83.65
-92.51
-101.15
-108.47
-113.18
-114.18
-110.90
-103.60
-93.23
-81.11
-68.45
-56.05
-44.18
-32.74
-21.54
-10.49
0.32
10.56
19.85
27.83
34.22
38.99
42.36
44.68
46.42
47.90
49.28
50.61
51.85
53.04
54.22
55.36
56.29
56.66
56.11
54.47
51.87
48.70
45.46
42.54
40.08
37.99
36.04
34.08
32.03
29.93
27.84
25.70
23.41
20.86
18.00
14.94
11.82
8.76
5.77
2.73
-0.54
-4.17
-8.14
-12.30
-16.44
-20.40
-24.14
-27.76
-31.45
-35.48
-40.10
-45.57
-52.00
-59.24
-66.81
-73.84
-79.18
-81.69
-80.57
-75.61
-67.27
-56.53
-44.60
-32.53
-20.98
-10.21
-0.12
9.46
18.60
27.13
34.69
40.91
45.58
48.74
50.72
51.98
52.95
53.91
54.91
55.83
56.53
56.95
57.14
57.17
57.05
56.68
55.82
54.25
51.91
48.95
45.72
42.61
39.88
37.58
35.51
33.41
31.04
28.39
25.58
22.86
20.38
18.17
16.07
13.83
11.23
8.14
4.59
0.75
-3.18
-6.96
-10.42
-13.52
-16.31
-18.97
-21.73
-24.81
-28.28
-32.03
-35.84
-39.48
-42.83
-45.97
-49.16
-52.81
-57.31
-62.90
-69.51
-76.69
-83.55
-88.93
-91.57
-90.49
-85.26
-76.23
-64.41
-51.24
-38.05
-25.76
-14.75
-4.83
4.33
12.95
20.97
28.06
33.85
38.14
41.03
42.90
44.23
45.42
46.65
47.93
49.16
50.23
51.11
51.80
52.27
52.45
52.20
51.37
49.90
47.84
45.34
42.65
40.02
37.63
35.50
33.55
31.65
29.71
27.65
25.52
23.39
21.25
19.09
16.83
14.44
11.97
9.50
7.16
4.97
2.83
0.62
-1.77
-4.32
-6.91
-9.42
-11.80
-14.08
-16.45
-19.07
-22.03
-25.30
-28.74
-32.17
-35.46
-38.55
-41.52
-44.55
-47.94
-51.99
-56.93
-62.80
-69.24
-75.44
-80.25
-82.41
-80.93
-75.41
-66.26
-54.54
-41.62
-28.84
-17.08
-6.71
2.29
10.11
16.91
22.73
27.50
31.20
33.89
35.77
37.11
38.18
39.14
40.07
40.93
41.70
42.36
42.91
43.35
43.68
43.77
43.51
42.76
41.47
39.66
37.48
35.10
32.71
30.42
28.30
26.36
24.57
22.88
21.23
19.59
17.89
16.13
14.29
12.40
10.46
8.46
6.33
3.97
1.29
-1.73
-5.05
-8.52
-11.95
-15.15
-18.01
-20.57
-23.00
-25.50
-28.30
-31.49
-35.03
-38.79
-42.65
-46.53
-50.43
-54.47
-58.86
-63.84
-69.64
-76.32
-83.64
-90.92
-97.08
-100.93
-101.46
-98.26
-91.67
-82.69
-72.62
-62.71
-53.80
-46.20
-39.86
-34.50
-29.95
-26.17
-23.25
-21.30
-20.24
-19.78
-19.47
-18.87
-17.57
-15.37
-12.08
-7.51
-1.41
6.50
16.46
28.52
42.48
57.91
74.16
90.47
106.04
120.20
132.43
142.54
150.55
156.61
160.85
163.19
163.35
160.93
155.57
147.18
136.09
122.93
108.58
93.82
79.23
65.13
51.67
38.94
27.08
16.26
6.58
-2.06
-9.97
-17.54
-25.10
-32.73
-40.28
-47.46
-54.03
-59.91
-65.15
-69.84
-74.09
-78.00
-81.77
-85.61
-89.68
-93.78
-97.23
-98.96
-97.90
-93.45
-85.79
-75.88
-65.00
-54.32
-44.51
-35.67
-27.62
-20.18
-13.39
-7.42
-2.52
1.22
3.89
5.80
7.33
8.84
10.59
12.66
14.94
17.21
19.24
20.86
21.99
22.64
22.81
22.50
21.70
20.42
18.75
16.87
14.99
13.27
11.80
10.53
9.39
8.21
6.90
5.40
3.74
2.02
0.34
-1.26
-2.81
-4.43
-6.21
-8.19
-10.33
-12.60
-14.95
-17.41
-20.04
-22.87
-25.80
-28.67
-31.32
-33.64
-35.69
-37.70
-40.01
-42.93
-46.70
-51.30
-56.44
-61.58
-65.89
-68.51
-68.67
-65.92
-60.32
-52.41
-43.09
-33.38
-24.18
-16.02
-9.08
-3.23
1.83
6.38
10.56
14.35
17.61
20.16
21.96
23.10
23.81
24.43
25.20
26.19
27.35
28.46
29.34
29.83
29.89
29.53
28.81
27.79
26.55
25.13
23.60
22.04
20.53
19.10
17.77
16.53
15.36
14.24
13.17
12.16
11.19
10.20
9.09
7.80
6.28
4.58
2.80
1.03
-0.67
-2.28
-3.85
-5.43
-7.06
-8.79
-10.62
-12.54
-14.46
-16.29
-17.97
-19.52
-21.08
-22.80
-24.78
-26.97
-29.12
-30.95
-32.30
-33.25
-34.15
-35.47
-37.57
-40.53
-44.05
-47.51
-50.09
-51.03
-49.74
-45.98
-39.90
-32.04
-23.27
-14.54
-6.73
-0.39
4.39
7.99
11.08
14.37
18.29
22.82
27.51
31.63
34.52
35.72
35.15
33.04
29.82
25.97
21.98
18.26
15.11
12.68
10.95
9.77
8.87
8.06
7.22
6.37
5.60
5.00
4.57
4.20
3.79
3.28
2.71
2.20
1.88
1.74
1.69
1.52
1.00
-0.05
-1.69
-3.94
-6.73
-9.99
-13.59
-17.41
-21.21
-24.73
-27.66
-29.72
-30.67
-30.32
-28.65
-25.84
-22.33
-18.73
-15.79
-14.10
-13.94
-15.12
-16.98
-18.45
-18.30
-15.52
-9.58
-0.79
9.87
20.87
30.71
38.35
43.48
46.46
47.97
48.63
48.61
47.71
45.49
41.71
36.45
30.25
23.81
17.82
12.71
8.59
5.40
3.01
1.34
0.37
0.05
0.26
0.79
1.41
1.94
2.37
2.82
3.50
4.63
6.42
8.98
12.36
16.50
21.22
26.24
31.26
36.03
40.36
44.20
47.53
50.39
52.80
54.73
55.97
56.20
55.03
52.07
47.17
40.44
32.37
23.71
15.24
7.51
0.71
-5.46
-11.64
-18.61
-26.96
-36.64
-46.85
-56.19
-63.01
-65.98
-64.56
-59.16
-51.12
-42.27
-34.32
-28.45
-25.17
-24.28
-25.09
-26.68
-28.41
-30.18
-32.46
-35.72
-40.27
-46.12
-52.81
-59.48
-65.05
-68.66
-70.05
-69.62
-67.58
-64.08
-59.16
-52.78
-44.91
-35.54
-24.85
-13.30
-1.42
11.06
24.75
39.93
56.32
73.11
89.62
105.57
121.14
132.77
137.43
134.54
126.42
116.26
105.88
96.07
87.22
79.51
72.96
67.93
65.06
63.25
61.07
57.01
50.61
42.78
35.82
32.47
35.22
44.68
58.76
74.50
87.16
92.75
89.25
76.45
55.27
27.31
-5.59
-41.30
-76.97
-109.51
-135.92
-154.29
-164.34
-167.00
-163.25
-153.44
-137.46
-115.48
-89.10
-61.35
-36.21
-17.45
-7.30
-5.82
-11.02
-19.85
-29.30
-37.32
-42.92
-45.84
-46.07
-43.57
-38.39
-30.90
-21.96
-12.72
-4.20
3.20
9.78
16.21
23.06
30.35
37.45
43.46
47.69
50.03
51.02
51.53
52.23
53.50
55.38
57.82
60.86
64.49
68.57
72.61
75.85
77.40
76.34
71.76
62.65
48.02
27.10
0.10
-31.33
-63.99
-93.79
-116.89
-130.90
-135.51
-132.34
-124.23
-114.16
-104.56
-96.91
-91.81
-89.21
-88.72
-89.72
-91.44
-93.12
-94.05
-93.81
-92.38
-90.10
-87.61
-85.61
-84.63
-84.90
-86.22
-88.06
-89.64
-90.15
-88.99
-86.03
-81.60
-76.39
-71.17
-66.45
-62.40
-58.82
-55.29
-51.40
-46.75
-40.99
-33.80
-24.99
-14.66
-3.38
7.90
18.15
26.61
33.02
37.70
41.24
44.12
46.50
48.25
49.12
49.08
48.41
47.67
47.46
48.25
50.34
54.00
59.47
67.03
76.67
87.96
99.95
111.37
120.99
127.92
131.69
132.16
129.40
123.63
115.32
105.34
94.84
84.98
76.47
69.29
62.69
55.62
47.13
36.89
25.17
12.83
0.83
-10.03
-19.40
-27.43
-34.68
-41.82
-49.35
-57.33
-65.29
-72.36
-77.52
-79.98
-79.45
-76.20
-71.03
-64.94
-58.99
-53.96
-50.35
-48.24
-47.43
-47.48
-47.90
-48.30
-48.42
-48.22
-47.72
-46.95
-45.96
-44.77
-43.41
-41.82
-39.71
-36.53
-31.52
-23.95
-13.46
-0.28
14.81
30.74
46.56
61.72
76.15
89.98
103.33
116.03
127.61
137.50
145.21
150.61
153.94
155.74
156.65
157.26
157.89
158.51
158.67
157.52
153.98
147.00
135.86
120.43
101.27
79.51
56.63
34.12
13.04
-6.09
-23.37
-39.34
-54.67
-69.85
-85.07
-100.15
-114.84
-128.95
-142.46
-155.34
-167.34
-177.74
-185.39
-189.01
-187.59
-180.88
-169.45
-154.55
-137.65
-120.04
-102.51
-85.29
-68.28
-51.24
-34.05
-16.86
-0.04
15.92
30.57
43.61
54.92
64.48
72.39
78.69
83.47
86.83
89.04
90.49
91.72
93.34
95.93
99.85
105.07
111.22
117.55
123.14
127.09
128.62
127.02
121.60
111.67
96.77
76.98
53.17
26.99
0.57
-24.05
-45.53
-63.54
-78.72
-92.27
-105.10
-117.25
-127.56
-133.93
-134.03
-126.37
-110.97
-89.45
-64.39
-38.23
-12.49
12.51
37.05
61.33
84.88
106.72
125.65
140.78
151.59
157.82
159.35
156.42
149.93
141.54
133.13
125.76
118.70
109.33
94.12
70.41
37.70
-1.94
-44.80
-86.80
-124.60
-155.88
-179.20
-193.56
-198.49
-194.34
-182.52
-165.33
-145.27
-124.26
-103.28
-82.55
-62.01
-41.94
-23.14
-6.76
6.10
14.75
19.08
19.58
17.21
13.19
8.64
4.35
0.67
-2.48
-5.48
-8.69
-12.31
-16.28
-20.34
-24.17
-27.57
-30.55
-33.43
-36.73
-40.97
-46.49
-53.20
-60.38
-66.91
-71.47
-72.89
-70.41
-63.74
-53.03
-38.79
-21.82
-3.06
16.61
36.52
56.27
75.55
93.86
110.43
124.31
134.69
141.24
144.20
144.29
142.52
140.01
137.72
136.10
134.75
132.33
127.16
118.19
105.85
92.28
80.44
72.59
69.13
68.41
67.67
64.54
58.25
49.86
41.49
35.40
33.22
35.74
43.05
54.54
68.84
83.71
96.29
103.60
103.27
94.19
76.92
53.58
27.49
2.33
-18.64
-33.40
-41.51
-44.16
-43.57
-42.28
-42.30
-44.47
-48.40
-52.72
-55.77
-56.17
-53.36
-47.66
-40.20
-32.47
-25.93
-21.61
-19.93
-20.65
-23.12
-26.51
-30.18
-33.82
-37.54
-41.78
-47.12
-54.12
-63.19
-74.63
-88.60
-105.27
-124.84
-147.52
-173.31
-201.73
-231.61
-261.05
-287.72
-309.33
-324.25
-331.76
-332.09
-326.08
-314.86
-299.54
-281.21
-260.98
-239.94
-219.09
-198.93
-179.33
-159.57
-138.67
-116.00
-91.66
-66.59
-42.29
-20.19
-0.96
15.79
31.49
48.05
67.14
89.49
114.63
141.14
167.16
191.05
211.70
228.66
241.98
252.04
259.46
265.03
269.55
273.54
276.93
278.83
277.58
271.38
258.90
239.93
215.57
188.00
159.76
133.00
108.81
87.21
67.36
48.34
29.79
12.26
-3.03
-14.71
-21.92
-24.69
-23.79
-20.35
-15.45
-9.82
-3.90
1.88
7.06
11.26
14.42
17.02
19.95
24.20
30.35
38.36
47.56
56.98
65.74
73.14
78.62
81.58
81.33
77.37
69.84
60.01
50.26
43.46
41.83
45.95
54.07
62.58
67.02
63.45
49.37
24.01
-11.67
-55.09
-102.11
-147.38
-185.24
-211.11
-223.00
-221.98
-211.57
-195.95
-178.27
-159.89
-140.87
-121.23
-101.93
-84.83
-71.73
-63.23
-58.11
-53.87
-47.89
-38.51
-25.65
-10.52
5.01
19.23
31.00
39.77
45.31
47.51
46.21
41.34
33.15
22.44
10.52
-1.02
-10.86
-18.40
-23.96
-28.56
-33.41
-39.25
-45.97
-52.69
-58.20
-61.64
-62.98
-62.89
-62.43
-62.47
-63.43
-65.18
-67.08
-68.09
-66.86
-62.20
-53.83
-43.05
-32.77
-26.67
-27.62
-36.24
-50.28
-65.46
-77.12
-81.88
-78.45
-67.37
-50.11
-28.46
-4.40
19.62
40.63
55.62
62.51
60.90
52.25
39.31
25.05
11.66
0.17
-9.51
-17.94
-25.69
-32.97
-39.64
-45.43
-50.06
-53.34
-55.26
-55.98
-55.83
-55.34
-54.85
-54.21
-52.47
-48.12
-39.73
-26.85
-10.65
6.32
20.97
30.85
35.04
34.19
29.97
24.11
18.02
12.53
8.28
5.78
5.53
7.65
11.76
17.06
22.51
27.20
30.52
32.28
32.65
32.12
31.38
31.15
31.99
33.96
36.62
39.12
40.55
40.25
38.17
34.85
31.24
28.26
26.36
25.30
24.24
22.19
18.48
13.18
7.09
1.34
-3.05
-5.52
-6.03
-4.95
-3.08
-1.73
-2.75
-8.23
-19.57
-36.57
-56.84
-76.22
-90.26
-95.83
-92.28
-81.37
-66.22
-49.80
-33.93
-19.22
-5.74
6.32
16.35
23.69
28.24
30.83
33.01
36.34
41.65
48.63
56.02
62.23
66.16
67.76
68.01
68.46
70.50
74.68
80.48
86.58
91.42
93.95
94.06
92.59
90.96
90.49
91.82
94.60
97.43
98.13
94.15
83.17
63.89
36.77
4.47
-28.43
-56.64
-75.82
-84.01
-82.28
-73.98
-63.19
-53.16
-45.46
-40.28
-37.32
-36.59
-38.55
-43.52
-51.01
-59.36
-66.37
-70.21
-70.29
-67.42
-63.08
-58.41
-53.43
-46.90
-36.98
-22.25
-2.51
20.93
45.46
67.76
84.37
92.30
89.59
76.02
53.46
25.87
-1.45
-23.33
-36.13
-38.66
-32.23
-19.65
-3.94
12.59
28.71
43.98
58.17
70.88
81.54
89.66
94.99
97.58
97.58
95.00
89.54
80.68
67.98
51.35
31.35
9.27
-13.03
-33.43
-50.05
-61.74
-68.42
-71.14
-71.76
-72.45
-75.06
-80.62
-89.04
-98.90
-107.76
-112.83
-111.85
-104.03
-90.41
-73.74
-57.65
-45.70
-40.47
-43.15
-53.33
-69.32
-88.36
-106.97
-121.43
-128.51
-126.23
-114.35
-94.43
-69.30
-42.07
-15.39
9.08
30.60
49.15
64.96
78.39
89.73
99.37
107.76
115.37
122.65
129.87
137.18
144.45
151.12
155.93
156.81
151.46
138.24
117.22
90.65
62.47
36.89
16.91
3.40
-4.72
-9.39
-12.24
-13.91
-14.22
-12.88
-10.19
-7.17
-5.02
-4.45
-5.12
-5.73
-4.50
-0.01
8.33
19.98
33.49
47.16
59.53
70.06
79.20
88.15
98.18
109.93
122.94
135.75
146.38
152.87
153.72
148.06
135.83
118.06
97.21
77.22
62.90
58.35
65.30
81.92
103.01
121.63
131.56
129.26
114.67
90.51
60.80
29.35
-1.01
-28.52
-52.17
-71.35
-85.66
-95.02
-99.68
-100.31
-97.85
-93.40
-88.12
-83.16
-79.57
-78.10
-79.05
-81.92
-85.05
-85.82
-81.17
-68.87
-48.85
-24.01
-0.12
15.63
16.75
-0.46
-35.62
-84.21
-138.70
-190.48
-231.89
-257.98
-267.49
-262.77
-248.59
-230.46
-212.90
-198.48
-187.79
-180.14
-174.52
-169.98
-165.74
-160.80
-154.10
-144.77
-132.85
-119.42
-106.32
-95.24
-86.70
-79.76
-72.21
-61.57
-46.23
-26.09
-2.73
21.20
42.94
60.57
73.44
82.10
87.70
91.27
93.13
92.88
89.67
82.87
72.52
59.45
45.10
30.95
18.09
6.99
-2.40
-10.41
-17.33
-23.29
-28.31
-32.45
-35.89
-38.71
-40.83
-41.71
-40.54
-36.50
-29.21
-19.00
-6.93
5.58
17.13
26.79
34.07
38.87
41.16
40.98
38.49
34.41
30.05
27.28
27.87
32.65
41.04
51.10
60.20
66.15
67.96
65.91
60.99
54.01
45.14
33.99
20.39
4.97
-10.70
-24.61
-35.21
-42.13
-46.23
-49.10
-52.20
-56.15
-60.59
-64.44
-66.49
-66.03
-63.16
-58.66
-53.64
-49.08
-45.39
-42.32
-39.03
-34.51
-27.85
-18.66
-7.10
6.12
19.97
33.31
45.16
54.84
62.02
66.73
69.20
69.89
69.28
67.89
66.14
64.29
62.47
60.56
58.32
55.43
51.66
47.00
41.75
36.49
31.81
28.07
25.12
22.24
18.50
13.07
5.68
-3.23
-12.73
-21.79
-29.81
-36.76
-43.21
-49.93
-57.62
-66.68
-77.14
-88.63
-100.41
-111.27
-119.61
-123.61
-121.78
-113.43
-99.14
-80.63
-60.29
-40.48
-22.82
-7.91
4.52
15.08
24.31
32.36
39.02
44.03
47.38
49.43
50.86
52.36
54.33
56.73
59.22
61.40
63.14
64.60
66.18
68.10
70.24
72.03
72.76
71.86
69.21
65.16
60.34
55.39
50.68
46.23
41.77
36.93
31.43
25.15
18.25
11.17
4.46
-1.37
-6.05
-9.70
-12.78
-15.82
-19.29
-23.33
-27.88
-32.73
-37.73
-42.81
-48.00
-53.42
-59.29
-65.92
-73.73
-83.10
-94.14
-106.35
-118.49
-128.74
-135.05
-135.77
-130.04
-118.07
-101.01
-80.62
-58.74
-36.89
-16.02
3.50
21.66
38.61
54.38
68.76
81.46
92.22
101.03
108.21
114.33
119.88
125.15
129.99
133.95
136.45
137.06
135.70
132.65
128.49
123.82
119.14
114.71
110.60
106.79
103.27
100.00
96.94
94.00
90.99
87.71
83.97
79.79
75.28
70.67
66.19
61.98
58.08
54.41
50.82
47.08
42.94
38.25
33.03
27.52
22.12
17.19
12.89
9.03
5.19
0.86
-4.35
-10.55
-17.60
-25.20
-32.94
-40.43
-47.45
-53.93
-60.15
-66.63
-74.08
-83.07
-93.70
-105.28
-116.36
-125.01
-129.33
-128.04
-120.84
-108.47
-92.43
-74.54
-56.43
-39.26
-23.62
-9.60
3.06
14.71
25.65
35.99
45.57
54.05
61.01
66.16
69.45
71.18
71.88
72.17
72.60
73.51
74.99
76.93
79.05
81.00
82.44
83.12
82.93
81.93
80.26
78.10
75.56
72.69
69.50
66.04
62.47
59.01
55.82
52.98
50.40
47.93
45.42
42.87
40.35
37.95
35.67
33.46
31.18
28.75
26.14
23.38
20.53
17.60
14.58
11.42
8.11
4.68
1.14
-2.56
-6.55
-11.03
-16.11
-21.79
-27.90
-34.16
-40.33
-46.24
-51.93
-57.66
-63.84
-70.97
-79.40
-89.14
-99.65
-109.75
-117.83
-122.19
-121.60
-115.60
-104.74
-90.30
-73.95
-57.29
-41.54
-27.44
-15.23
-4.79
4.19
12.11
19.28
25.85
31.81
37.08
41.55
45.23
48.15
50.38
52.00
53.10
53.84
54.44
55.08
55.86
56.62
57.05
56.85
55.83
54.03
51.66
49.03
46.37
43.85
41.52
39.41
37.51
35.73
33.95
31.95
29.53
26.56
22.99
18.86
14.24
9.23
3.89
-1.66
-7.34
-13.05
-18.73
-24.37
-30.03
-35.77
-41.62
-47.49
-53.20
-58.56
-63.45
-67.88
-72.06
-76.28
-80.95
-86.43
-92.91
-100.21
-107.65
-113.99
-117.65
-117.12
-111.44
-100.57
-85.42
-67.54
-48.59
-29.91
-12.28
4.03
18.97
32.46
44.25
54.04
61.59
66.93
70.34
72.32
73.43
74.12
74.64
75.03
75.26
75.31
75.25
75.21
75.31
75.55
75.74
75.55
74.63
72.69
69.65
65.67
61.10
56.38
51.92
48.06
44.99
42.84
41.55
40.91
40.49
39.76
38.15
35.26
31.02
25.71
19.91
14.29
9.47
5.91
3.81
3.19
3.84
5.44
7.54
9.59
11.04
11.39
10.28
7.61
3.57
-1.38
-6.57
-11.36
-15.29
-18.30
-20.66
-22.92
-25.59
-28.96
-32.96
-37.21
-41.27
-44.77
-47.66
-50.22
-52.93
-56.34
-60.91
-66.88
-74.15
-82.25
-90.19
-96.60
-100.05
-99.42
-94.31
-85.23
-73.38
-60.29
-47.32
-35.29
-24.55
-15.01
-6.50
1.11
7.87
13.80
18.91
23.25
26.87
29.79
32.06
33.70
34.76
35.37
35.71
36.06
36.69
37.78
39.31
41.05
42.55
43.37
43.19
41.98
39.96
37.53
35.11
32.95
31.14
29.62
28.28
26.95
25.55
23.98
22.24
20.33
18.38
16.49
14.82
13.45
12.35
11.41
10.47
9.41
8.17
6.77
5.25
3.64
1.91
-0.01
-2.11
-4.34
-6.57
-8.67
-10.58
-12.38
-14.26
-16.50
-19.36
-22.91
-27.03
-31.37
-35.50
-39.04
-41.82
-43.96
-45.84
-47.99
-50.90
-54.86
-59.86
-65.48
-70.93
-75.15
-77.02
-75.70
-70.86
-62.80
-52.41
-40.88
-29.38
-18.77
-9.56
-1.88
4.34
9.24
13.00
15.80
17.82
19.24
20.26
21.06
21.73
22.33
22.83
23.20
23.41
23.49
23.52
23.61
23.81
24.05
24.13
23.80
22.85
21.24
19.09
16.66
14.22
11.96
9.91
7.98
6.01
3.90
1.63
-0.70
-2.93
-4.92
-6.67
-8.28
-9.95
-11.90
-14.27
-17.06
-20.12
-23.24
-26.23
-29.04
-31.73
-34.48
-37.49
-40.92
-44.84
-49.23
-53.89
-58.39
-62.04
-63.91
-63.16
-59.29
-52.42
-43.35
-33.27
-23.37
-14.45
-6.81
-0.30
5.35
10.37
14.75
18.40
21.21
23.21
24.53
25.38
25.96
26.44
26.90
27.41
27.96
28.51
29.03
29.47
29.80
29.95
29.85
29.37
28.41
26.93
25.02
22.86
20.72
18.82
17.28
16.09
15.10
14.12
12.98
11.58
9.95
8.18
6.37
4.61
2.97
1.46
0.09
-1.15
-2.31
-3.44
-4.63
-5.98
-7.54
-9.36
-11.45
-13.72
-16.06
-18.32
-20.30
-21.90
-23.12
-24.09
-25.00
-26.01
-27.21
-28.53
-29.87
-31.14
-32.34
-33.60
-35.16
-37.27
-40.20
-44.16
-49.22
-55.17
-61.42
-66.94
-70.50
-71.02
-67.96
-61.54
-52.71
-42.74
-32.88
-23.97
-16.31
-9.82
-4.15
1.06
6.09
11.10
16.03
20.68
24.74
27.98
30.30
31.87
33.01
34.10
35.34
36.77
38.22
39.52
40.54
41.28
41.77
42.02
41.94
41.42
40.34
38.74
36.81
34.84
33.09
31.72
30.68
29.82
28.89
27.75
26.37
24.84
23.30
21.86
20.61
19.55
18.68
17.96
17.30
16.55
15.60
14.38
12.93
11.39
9.92
8.61
7.40
6.16
4.69
2.90
0.79
-1.57
-4.10
-6.68
-9.23
-11.62
-13.79
-15.72
-17.53
-19.45
-21.65
-24.23
-27.09
-30.06
-32.93
-35.63
-38.24
-40.93
-43.94
-47.45
-51.57
-56.33
-61.58
-66.93
-71.64
-74.73
-75.17
-72.29
-65.98
-56.95
-46.41
-35.80
-26.22
-18.16
-11.51
-5.71
-0.18
5.42
11.05
16.41
21.10
24.84
27.52
29.25
30.20
30.64
30.78
30.83
30.97
31.35
32.01
32.92
33.89
34.66
34.96
34.60
33.58
32.08
30.37
28.80
27.59
26.83
26.39
26.10
25.71
25.03
23.98
22.54
20.82
18.96
17.11
15.44
14.04
12.92
12.03
11.21
10.32
9.21
7.81
6.10
4.12
1.97
-0.21
-2.30
-4.21
-5.97
-7.67
-9.55
-11.83
-14.62
-17.88
-21.43
-25.01
-28.41
-31.54
-34.46
-37.28
-40.24
-43.59
-47.59
-52.45
-58.05
-63.93
-69.19
-72.70
-73.44
-70.81
-64.90
-56.44
-46.57
-36.46
-26.98
-18.59
-11.33
-5.00
0.70
5.98
10.93
15.50
19.58
23.01
25.69
27.57
28.74
29.35
29.68
29.98
30.48
31.31
32.42
33.67
34.84
35.73
36.23
36.31
36.01
35.38
34.50
33.40
32.13
30.79
29.48
28.32
27.34
26.50
25.75
25.01
24.29
23.60
22.98
22.39
21.72
20.82
19.62
18.14
16.57
15.12
13.96
13.08
12.34
11.54
10.55
9.34
8.01
6.68
5.41
4.12
2.68
0.92
-1.26
-3.81
-6.56
-9.26
-11.68
-13.66
-15.24
-16.59
-18.02
-19.80
-22.10
-24.89
-27.95
-31.01
-33.87
-36.46
-38.89
-41.38
-44.19
-47.56
-51.63
-56.32
-61.25
-65.67
-68.60
-69.08
-66.48
-60.77
-52.54
-42.84
-32.82
-23.41
-15.17
-8.20
-2.30
2.82
7.47
11.78
15.78
19.34
22.33
24.66
26.40
27.70
28.76
29.77
30.82
31.90
32.99
34.04
35.00
35.74
36.13
36.04
35.43
34.39
33.12
31.89
30.90
30.22
29.75
29.28
28.60
27.57
26.16
24.52
22.86
21.37
20.17
19.23
18.43
17.64
16.74
15.70
14.53
13.23
11.77
10.16
8.40
6.55
4.68
2.84
1.01
-0.90
-2.94
-5.15
-7.42
-9.63
-11.60
-13.26
-14.64
-15.91
-17.29
-18.95
-20.98
-23.30
-25.77
-28.29
-30.81
-33.43
-36.36
-39.84
-44.07
-49.06
-54.52
-59.80
-64.04
-66.27
-65.76
-62.23
-55.93
-47.63
-38.34
-29.08
-20.56
-13.19
-6.98
-1.76
2.71
6.59
9.92
12.70
14.98
16.86
18.50
20.06
21.65
23.20
24.61
25.82
26.84
27.73
28.58
29.38
30.05
30.42
30.35
29.85
28.99
27.92
26.78
25.65
24.55
23.52
22.55
21.69
20.97
20.40
19.89
19.38
18.78
18.04
17.23
16.44
15.73
15.10
14.49
13.77
12.91
11.90
10.81
9.71
8.62
7.53
6.34
5.02
3.54
1.95
0.31
-1.37
-3.06
-4.83
-6.67
-8.57
-10.48
-12.38
-14.26
-16.13
-18.00
-19.89
-21.80
-23.72
-25.74
-27.95
-30.47
-33.32
-36.47
-39.85
-43.42
-47.22
-51.34
-55.71
-59.95
-63.34
-64.95
-63.97
-60.03
-53.41
-44.98
-35.90
-27.19
-19.54
-13.14
-7.80
-3.20
0.99
4.95
8.72
12.25
15.37
17.96
19.88
21.12
21.75
21.92
21.82
21.67
21.64
21.87
22.44
23.33
24.39
25.28
25.63
25.12
23.70
21.54
19.06
16.72
14.80
13.37
12.25
11.20
9.98
8.47
6.68
4.72
2.75
0.93
-0.61
-1.83
-2.76
-3.47
-4.11
-4.81
-5.66
-6.66
-7.77
-8.86
-9.80
-10.41
-10.57
-10.15
-9.08
-7.43
-5.36
-3.14
-0.95
1.07
2.99
4.93
6.93
8.90
10.52
11.40
11.21
9.84
7.31
3.83
-0.33
-4.79
-9.16
-12.93
-15.66
-17.09
-17.23
-16.49
-15.53
-15.02
-15.36
-16.48
-17.84
-18.55
-17.73
-14.85
-9.95
-3.59
3.28
9.73
15.04
18.94
21.51
23.08
24.01
24.61
25.06
25.46
25.90
26.48
27.29
28.36
29.64
30.97
32.14
33.03
33.59
33.86
33.96
33.93
33.72
33.25
32.42
31.19
29.55
27.57
25.34
22.93
20.44
17.97
15.61
13.42
11.42
9.57
7.86
6.29
4.90
3.72
2.72
1.81
0.83
-0.35
-1.81
-3.47
-5.19
-6.82
-8.31
-9.75
-11.38
-13.41
-15.98
-18.99
-22.17
-25.16
-27.70
-29.77
-31.56
-33.42
-35.74
-38.81
-42.64
-46.98
-51.25
-54.64
-56.29
-55.55
-52.17
-46.40
-38.96
-30.84
-22.94
-15.93
-10.02
-5.10
-0.90
2.87
6.27
9.24
11.63
13.34
14.43
15.09
15.55
16.00
16.57
17.33
18.31
19.57
21.13
22.89
24.66
26.15
27.11
27.39
27.06
26.20
25.01
23.61
22.12
20.71
19.49
18.56
17.93
17.51
17.19
16.84
16.42
15.93
15.37
14.74
13.98
13.03
11.85
10.45
8.91
7.37
5.90
4.59
3.41
2.24
0.97
-0.53
-2.31
-4.35
-6.55
-8.82
-11.11
-13.42
-15.81
-18.37
-21.18
-24.31
-27.71
-31.28
-34.83
-38.15
-41.17
-44.00
-46.99
-50.58
-55.12
-60.57
-66.45
-71.83
-75.54
-76.55
-74.29
-68.77
-60.64
-50.92
-40.70
-30.93
-22.20
-14.73
-8.44
-3.01
1.93
6.72
11.49
16.17
20.50
24.19
27.06
29.15
30.64
31.79
32.82
33.82
34.80
35.69
36.48
37.14
37.63
37.87
37.79
37.35
36.57
35.62
34.63
33.73
32.89
32.00
30.91
29.53
27.88
26.13
24.48
23.10
22.06
21.32
20.76
20.26
19.70
19.03
18.28
17.47
16.64
15.83
14.99
14.10
13.08
11.86
10.49
9.03
7.61
6.34
5.23
4.11
2.76
0.97
-1.34
-4.04
-6.87
-9.54
-11.91
-14.00
-16.00
-18.14
-20.62
-23.48
-26.66
-30.00
-33.37
-36.74
-40.22
-44.04
-48.46
-53.67
-59.63
-66.00
-72.11
-77.02
-79.74
-79.48
-75.88
-69.15
-60.09
-49.85
-39.62
-30.29
-22.28
-15.50
-9.54
-3.92
1.67
7.31
12.84
18.01
22.61
26.48
29.60
31.94
33.55
34.50
34.95
35.17
35.47
36.08
37.04
38.21
39.27
39.92
40.01
39.57
38.81
37.94
37.08
36.24
35.32
34.25
32.98
31.54
30.01
28.46
26.99
25.67
24.50
23.51
22.60
21.66
20.52
19.09
17.39
15.56
13.73
12.05
10.46
8.83
7.00
4.85
2.45
-0.01
-2.34
-4.43
-6.34
-8.32
-10.67
-13.56
-17.01
-20.82
-24.71
-28.43
-31.92
-35.30
-38.81
-42.76
-47.33
-52.55
-58.27
-64.08
-69.32
-73.18
-74.77
-73.43
-68.92
-61.58
-52.30
-42.25
-32.58
-24.08
-17.01
-11.14
-6.01
-1.19
3.52
7.97
11.89
15.02
17.31
18.94
20.23
21.40
22.53
23.52
24.27
24.76
25.12
25.52
25.98
26.33
26.23
25.38
23.65
21.15
18.17
15.04
12.04
9.29
6.82
4.62
2.67
0.97
-0.52
-1.86
-3.10
-4.27
-5.39
-6.41
-7.32
-8.08
-8.68
-9.06
-9.18
-8.95
-8.30
-7.21
-5.62
-3.52
-0.89
2.22
5.67
9.19
12.44
15.16
17.25
18.88
20.36
22.10
24.36
27.24
30.60
34.20
37.66
40.61
42.66
43.47
42.74
40.35
36.33
30.97
24.65
17.84
10.81
3.69
-3.69
-11.63
-20.30
-29.59
-38.87
-47.08
-53.00
-55.65
-54.57
-50.09
-43.16
-35.08
-27.10
-20.09
-14.41
-9.90
-6.15
-2.59
1.17
5.29
9.65
13.94
17.73
20.72
22.75
23.86
24.25
24.17
23.87
23.59
23.51
23.78
24.46
25.42
26.41
27.07
27.09
26.33
24.91
23.11
21.27
19.66
18.37
17.34
16.41
15.43
14.30
12.99
11.52
9.99
8.54
7.33
6.48
6.07
6.07
6.43
7.05
7.86
8.79
9.82
10.88
11.97
13.04
14.08
15.07
16.02
16.90
17.65
18.22
18.53
18.51
18.13
17.39
16.33
15.11
13.95
13.13
12.94
13.64
15.26
17.56
20.03
21.98
22.76
21.98
19.58
15.89
11.38
6.48
1.48
-3.59
-8.85
-14.49
-20.71
-27.66
-35.37
-43.63
-51.90
-59.29
-64.74
-67.38
-66.79
-63.18
-57.30
-50.19
-42.83
-35.90
-29.72
-24.28
-19.40
-14.82
-10.33
-5.85
-1.46
2.59
6.01
8.59
10.31
11.38
12.14
12.88
13.73
14.70
15.71
16.66
17.50
18.21
18.72
18.94
18.80
18.22
17.24
15.95
14.47
12.97
11.58
10.40
9.41
8.51
7.55
6.40
5.03
3.56
2.21
1.20
0.62
0.41
0.38
0.30
-0.00
-0.58
-1.34
-2.20
-3.09
-4.05
-5.23
-6.77
-8.70
-10.90
-13.05
-14.74
-15.59
-15.43
-14.31
-12.47
-10.38
-8.56
-7.61
-8.03
-10.14
-13.88
-18.72
-23.69
-27.61
-29.37
-28.28
-24.35
-18.21
-10.95
-3.74
2.51
7.33
10.75
13.12
14.88
16.39
17.72
18.77
19.31
19.17
18.43
17.34
16.28
15.60
15.43
15.73
16.35
17.08
17.80
18.49
19.13
19.74
20.24
20.57
20.61
20.32
19.72
18.91
18.03
17.17
16.44
15.84
15.32
14.80
14.20
13.50
12.73
11.96
11.21
10.42
9.52
8.48
7.31
6.14
5.12
4.29
3.59
2.87
1.94
0.71
-0.80
-2.49
-4.26
-6.08
-7.96
-9.91
-11.88
-13.72
-15.28
-16.51
-17.54
-18.64
-20.07
-22.02
-24.46
-27.19
-29.97
-32.59
-34.99
-37.19
-39.32
-41.58
-44.19
-47.39
-51.41
-56.29
-61.72
-66.97
-71.00
-72.71
-71.35
-66.77
-59.50
-50.59
-41.18
-32.24
-24.28
-17.45
-11.57
-6.36
-1.55
3.11
7.76
12.40
16.87
20.91
24.21
26.58
27.97
28.58
28.69
28.63
28.60
28.73
29.05
29.53
30.15
30.77
31.24
31.30
30.74
29.48
27.62
25.50
23.50
21.95
20.95
20.31
19.66
18.61
16.92
14.68
12.18
9.84
8.01
6.80
6.11
5.59
4.88
3.67
1.83
-0.52
-3.12
-5.53
-7.34
-8.16
-7.71
-5.93
-3.04
0.46
3.83
6.33
7.43
7.04
5.55
3.61
1.98
1.18
1.43
2.67
4.68
7.19
9.97
12.70
15.04
16.56
16.84
15.69
13.15
9.57
5.42
1.18
-2.89
-6.75
-10.60
-14.74
-19.48
-25.06
-31.47
-38.41
-45.22
-50.94
-54.53
-55.20
-52.71
-47.51
-40.56
-33.03
-25.91
-19.71
-14.51
-10.04
-6.01
-2.18
1.53
5.10
8.52
11.76
14.81
17.61
20.08
22.10
23.58
24.52
25.03
25.32
25.65
26.23
27.16
28.37
29.64
30.67
31.20
31.09
30.35
29.19
27.84
26.54
25.37
24.29
23.21
21.99
20.59
19.05
17.47
15.95
14.54
13.21
11.93
10.66
9.39
8.13
6.92
5.69
4.37
2.85
1.07
-0.90
-2.85
-4.54
-5.74
-6.43
-6.80
-7.14
-7.77
-8.87
-10.46
-12.37
-14.40
-16.38
-18.27
-20.13
-22.01
-23.97
-26.01
-28.06
-30.09
-32.06
-33.98
-35.85
-37.73
-39.67
-41.84
-44.48
-47.86
-52.13
-57.11
-62.21
-66.46
-68.77
-68.26
-64.66
-58.35
-50.26
-41.60
-33.39
-26.24
-20.32
-15.44
-11.29
-7.58
-4.14
-0.91
2.06
4.67
6.84
8.48
9.56
10.11
10.20
9.95
9.47
8.92
8.49
8.38
8.76
9.66
11.00
12.59
14.26
15.91
17.62
19.55
21.95
24.99
28.74
33.17
38.07
43.11
47.80
51.62
54.07
54.90
54.17
52.29
49.72
46.84
43.71
40.07
35.55
29.86
23.00
15.30
7.28
-0.49
-7.51
-13.38
-17.84
-20.82
-22.51
-23.41
-24.28
-25.81
-28.40
-31.87
-35.57
-38.63
-40.38
-40.62
-39.66
-38.14
-36.66
-35.49
-34.49
-33.20
-31.13
-27.92
-23.55
-18.27
-12.60
-7.09
-2.15
2.00
5.40
8.19
10.60
12.77
14.78
16.67
18.47
20.24
22.05
23.87
25.57
26.96
27.77
27.85
27.20
25.98
24.47
22.97
21.69
20.70
19.96
19.28
18.47
17.35
15.83
13.94
11.84
9.75
7.84
6.17
4.60
2.87
0.71
-2.03
-5.27
-8.78
-12.21
-15.34
-18.10
-20.60
-23.08
-25.84
-29.17
-33.27
-38.13
-43.37
-48.29
-51.90
-53.26
-51.76
-47.40
-40.71
-32.65
-24.17
-16.00
-8.55
-1.94
3.82
8.73
12.83
16.17
18.88
21.11
23.00
24.61
25.97
27.13
28.18
29.26
30.45
31.74
33.00
34.10
34.94
35.55
36.01
36.35
36.51
36.30
35.54
34.18
32.38
30.50
28.92
27.82
27.18
26.75
26.27
25.59
24.71
23.73
22.75
21.80
20.80
19.69
18.46
17.17
15.90
14.71
13.59
12.51
11.44
10.39
9.40
8.50
7.65
6.72
5.62
4.31
2.88
1.50
0.29
-0.70
-1.61
-2.60
-3.84
-5.35
-7.02
-8.69
-10.21
-11.54
-12.72
-13.88
-15.18
-16.74
-18.62
-20.80
-23.18
-25.56
-27.75
-29.65
-31.31
-32.96
-34.95
-37.64
-41.23
-45.67
-50.61
-55.36
-59.04
-60.73
-59.74
-55.81
-49.27
-40.96
-31.97
-23.30
-15.59
-8.99
-3.33
1.72
6.38
10.62
14.25
17.01
18.76
19.55
19.65
19.47
19.41
19.77
20.63
21.86
23.29
24.76
26.19
27.56
28.82
29.79
30.22
29.87
28.65
26.75
24.53
22.45
20.83
19.77
19.12
18.57
17.87
16.89
15.70
14.45
13.30
12.33
11.50
10.70
9.83
8.88
7.83
6.69
5.36
3.75
1.81
-0.41
-2.68
-4.73
-6.37
-7.61
-8.66
-9.82
-11.39
-13.45
-15.95
-18.70
-21.50
-24.24
-26.91
-29.57
-32.39
-35.59
-39.39
-43.94
-49.12
-54.48
-59.17
-62.16
-62.57
-60.02
-54.68
-47.33
-38.95
-30.52
-22.68
-15.71
-9.60
-4.14
0.86
5.50
9.80
13.66
16.98
19.74
21.97
23.78
25.21
26.29
27.02
27.45
27.74
28.13
28.83
29.86
31.06
32.12
32.71
32.65
31.97
30.82
29.42
27.98
26.60
25.39
24.34
23.50
22.83
22.26
21.67
20.93
19.95
18.69
17.22
15.73
14.43
13.50
12.98
12.74
12.54
12.12
11.29
10.04
8.49
6.85
5.29
3.91
2.72
1.66
0.63
-0.44
-1.62
-2.95
-4.46
-6.10
-7.85
-9.59
-11.25
-12.82
-14.41
-16.21
-18.43
-21.11
-24.14
-27.22
-30.06
-32.52
-34.70
-36.91
-39.53
-42.88
-47.09
-52.05
-57.42
-62.62
-66.83
-69.16
-68.82
-65.38
-59.02
-50.51
-41.00
-31.62
-23.24
-16.19
-10.36
-5.43
-1.05
3.04
6.94
10.69
14.26
17.56
20.50
22.99
24.96
26.47
27.63
28.58
29.51
30.53
31.69
32.96
34.23
35.34
36.09
36.33
36.02
35.21
34.07
32.83
31.70
30.81
30.19
29.76
29.41
28.95
28.29
27.39
26.27
25.04
23.79
22.65
21.69
20.96
20.41
19.92
19.33
18.46
17.23
15.66
13.94
12.25
10.72
9.34
8.03
6.67
5.23
3.76
2.36
1.09
-0.08
-1.29
-2.69
-4.34
-6.17
-8.04
-9.76
-11.27
-12.65
-14.07
-15.70
-17.66
-19.93
-22.41
-24.97
-27.51
-30.01
-32.52
-35.20
-38.22
-41.77
-46.00
-50.95
-56.42
-61.92
-66.63
-69.54
-69.77
-66.80
-60.78
-52.48
-43.14
-33.97
-25.87
-19.18
-13.67
-8.88
-4.33
0.18
4.63
8.82
12.57
15.78
18.47
20.76
22.74
24.48
25.99
27.29
28.42
29.49
30.63
31.86
33.11
34.20
34.88
34.99
34.51
33.61
32.54
31.55
30.78
30.19
29.62
28.91
27.96
26.82
25.68
24.72
24.07
23.71
23.49
23.18
22.62
21.76
20.70
19.58
18.50
17.45
16.37
15.17
13.90
12.66
11.64
10.91
10.38
9.85
9.12
8.08
6.82
5.55
4.44
3.55
2.77
1.87
0.65
-0.98
-2.99
-5.22
-7.51
-9.76
-11.90
-13.92
-15.89
-17.89
-20.00
-22.29
-24.75
-27.27
-29.75
-32.11
-34.39
-36.78
-39.54
-42.94
-47.12
-52.08
-57.51
-62.84
-67.19
-69.57
-69.17
-65.58
-59.07
-50.50
-41.08
-31.95
-23.85
-16.98
-11.13
-5.92
-1.04
3.60
7.91
11.68
14.72
16.97
18.55
19.73
20.82
22.10
23.68
25.53
27.51
29.44
31.15
32.59
33.71
34.56
35.12
35.38
35.31
34.85
34.05
33.01
31.96
31.09
30.50
30.09
29.56
28.61
27.11
25.18
23.17
21.44
20.11
19.03
17.92
16.54
14.95
13.42
12.29
11.71
11.58
11.51
11.07
10.04
8.47
6.65
4.90
3.46
2.33
1.32
0.24
-1.09
-2.70
-4.47
-6.24
-7.85
-9.20
-10.29
-11.21
-12.13
-13.24
-14.75
-16.76
-19.19
-21.87
-24.49
-26.85
-28.89
-30.76
-32.68
-34.95
-37.80
-41.43
-45.90
-51.04
-56.29
-60.71
-63.12
-62.51
-58.42
-51.20
-41.97
-32.16
-23.05
-15.44
-9.46
-4.76
-0.84
2.75
6.23
9.56
12.63
15.25
17.33
18.84
19.86
20.57
21.16
21.84
22.74
23.85
25.03
26.10
26.90
27.38
27.63
27.77
27.85
27.81
27.48
26.73
25.55
24.09
22.59
21.23
20.09
19.11
18.19
17.31
16.47
15.73
15.06
14.34
13.38
12.05
10.39
8.63
7.14
6.26
6.10
6.53
7.28
8.02
8.52
8.68
8.43
7.77
6.62
4.85
2.31
-1.10
-5.38
-10.39
-15.94
-21.78
-27.74
-33.78
-39.99
-46.59
-53.70
-61.19
-68.53
-74.83
-79.07
-80.37
-78.31
-73.04
-65.22
-55.80
-45.76
-35.86
-26.55
-18.00
-10.23
-3.19
3.20
8.99
14.28
19.12
23.53
27.45
30.77
33.40
35.30
36.54
37.22
37.48
37.40
37.11
36.68
36.21
35.79
35.41
34.96
34.28
33.20
31.65
29.74
27.67
25.67
23.89
22.34
20.97
19.71
18.57
17.60
16.89
16.48
16.30
16.24
16.14
15.94
15.59
15.12
14.53
13.90
13.27
12.74
12.38
12.16
12.00
11.73
11.19
10.29
9.07
7.67
6.28
5.01
3.86
2.72
1.41
-0.16
-2.03
-4.10
-6.22
-8.29
-10.25
-12.24
-14.43
-17.04
-20.14
-23.63
-27.27
-30.79
-34.06
-37.19
-40.52
-44.52
-49.62
-55.96
-63.33
-71.02
-77.96
-82.90
-84.74
-82.80
-77.11
-68.38
-57.82
-46.82
-36.51
-27.59
-20.20
-14.05
-8.61
-3.38
1.98
7.52
13.02
18.12
22.47
25.88
28.35
30.10
31.39
32.51
33.65
34.94
36.43
38.08
39.75
41.19
42.14
42.41
41.99
41.04
39.82
38.58
37.53
36.72
36.14
35.71
35.35
35.00
34.56
33.97
33.16
32.16
31.08
30.06
29.17
28.40
27.63
26.68
25.46
23.96
22.33
20.75
19.35
18.19
17.22
16.36
15.53
14.66
13.65
12.45
10.98
9.31
7.57
5.96
4.62
3.53
2.52
1.30
-0.32
-2.41
-4.84
-7.36
-9.70
-11.78
-13.63
-15.47
-17.51
-19.93
-22.76
-25.94
-29.28
-32.60
-35.75
-38.72
-41.60
-44.56
-47.81
-51.58
-56.03
-61.26
-67.09
-73.00
-78.09
-81.16
-81.16
-77.48
-70.29
-60.52
-49.57
-38.85
-29.35
-21.41
-14.82
-9.06
-3.61
1.88
7.45
12.96
18.16
22.79
26.67
29.73
32.00
33.63
34.81
35.72
36.50
37.27
38.05
38.91
39.82
40.77
41.62
42.22
42.40
42.07
41.29
40.24
39.19
38.34
37.71
37.12
36.32
35.11
33.49
31.66
29.96
28.64
27.81
27.32
26.88
26.20
25.09
23.57
21.84
20.09
18.53
17.22
16.13
15.14
14.13
12.98
11.63
10.10
8.46
6.80
5.15
3.53
1.89
0.20
-1.51
-3.17
-4.69
-6.04
-7.25
-8.47
-9.86
-11.58
-13.70
-16.16
-18.80
-21.46
-24.01
-26.41
-28.70
-30.95
-33.24
-35.67
-38.39
-41.59
-45.43
-49.94
-54.78
-59.24
-62.27
-62.84
-60.31
-54.74
-46.83
-37.76
-28.69
-20.48
-13.51
-7.73
-2.87
1.34
5.06
8.33
11.12
13.40
15.19
16.59
17.75
18.86
20.07
21.44
22.91
24.37
25.73
26.94
28.01
28.96
29.73
30.19
30.22
29.74
28.83
27.70
26.59
25.68
24.99
24.43
23.82
22.99
21.88
20.52
19.07
17.68
16.51
15.55
14.76
13.97
13.05
11.96
10.73
9.44
8.14
6.75
5.16
3.26
1.06
-1.30
-3.60
-5.67
-7.46
-9.12
-10.89
-12.98
-15.47
-18.27
-21.19
-24.02
-26.65
-29.12
-31.56
-34.15
-37.04
-40.38
-44.31
-48.92
-54.21
-59.89
-65.30
-69.51
-71.48
-70.47
-66.24
-59.22
-50.34
-40.77
-31.55
-23.34
-16.41
-10.57
-5.51
-0.84
3.69
8.15
12.47
16.55
20.23
23.43
26.13
28.27
29.90
31.09
32.00
32.83
33.76
34.86
36.06
37.17
37.96
38.27
38.03
37.34
36.37
35.30
34.30
33.41
32.62
31.83
30.97
29.96
28.83
27.58
26.25
24.91
23.57
22.28
21.08
20.00
19.04
18.11
17.09
15.83
14.27
12.45
10.49
8.58
6.80
5.18
3.65
2.13
0.53
-1.19
-3.01
-4.84
-6.63
-8.33
-9.94
-11.54
-13.25
-15.16
-17.30
-19.57
-21.78
-23.76
-25.43
-26.86
-28.24
-29.73
-31.39
-33.15
-34.80
-36.17
-37.17
-37.88
-38.48
-39.21
-40.35
-42.15
-44.80
-48.38
-52.69
-57.15
-60.89
-62.81
-61.98
-57.92
-50.86
-41.66
-31.56
-21.86
-13.47
-6.81
-1.81
1.98
5.11
8.05
11.05
14.11
16.99
19.44
21.28
22.54
23.44
24.26
25.25
26.47
27.88
29.29
30.56
31.60
32.40
32.98
33.33
33.38
33.01
32.14
30.77
29.05
27.25
25.64
24.38
23.40
22.48
21.32
19.73
17.71
15.46
13.25
11.32
9.74
8.44
7.29
6.18
5.14
4.25
3.64
3.34
3.27
3.23
3.02
2.53
1.79
0.93
0.10
-0.60
-1.21
-1.83
-2.53
-3.32
-4.08
-4.68
-5.03
-5.12
-5.06
-4.98
-5.04
-5.33
-5.87
-6.63
-7.48
-8.29
-8.94
-9.39
-9.73
-10.13
-10.76
-11.66
-12.75
-13.83
-14.70
-15.34
-15.87
-16.58
-17.82
-19.85
-22.78
-26.54
-30.83
-35.03
-38.30
-39.70
-38.45
-34.25
-27.47
-19.05
-10.26
-2.33
4.00
8.52
11.52
13.58
15.26
16.98
18.94
21.16
23.46
25.65
27.49
28.86
29.66
29.94
29.82
29.42
28.93
28.49
28.21
28.17
28.37
28.71
29.02
29.12
28.86
28.21
27.30
26.25
25.21
24.21
23.19
22.05
20.74
19.28
17.79
16.41
15.27
14.44
13.88
13.49
13.16
12.75
12.20
11.48
10.69
9.92
9.26
8.76
8.34
7.87
7.21
6.28
5.11
3.79
2.45
1.16
-0.07
-1.35
-2.73
-4.27
-5.88
-7.46
-8.89
-10.15
-11.31
-12.58
-14.15
-16.17
-18.59
-21.23
-23.79
-25.99
-27.69
-28.97
-30.09
-31.48
-33.57
-36.67
-40.82
-45.70
-50.62
-54.61
-56.67
-56.07
-52.55
-46.46
-38.66
-30.20
-22.06
-14.87
-8.89
-4.06
-0.13
3.19
6.11
8.80
11.27
13.48
15.31
16.72
17.73
18.49
19.21
20.02
20.95
21.95
22.89
23.70
24.42
25.06
25.65
26.14
26.40
26.35
25.95
25.31
24.54
23.79
23.13
22.51
21.83
20.97
19.89
18.69
17.53
16.59
15.87
15.27
14.54
13.49
12.09
10.53
9.06
7.86
6.97
6.26
5.55
4.78
4.01
3.35
2.87
2.45
1.92
1.14
0.06
-1.18
-2.41
-3.51
-4.52
-5.60
-6.94
-8.63
-10.59
-12.61
-14.45
-16.01
-17.34
-18.66
-20.25
-22.26
-24.70
-27.34
-29.86
-32.04
-33.85
-35.50
-37.36
-39.78
-43.02
-47.08
-51.72
-56.44
-60.51
-63.08
-63.38
-60.89
-55.61
-48.11
-39.40
-30.65
-22.83
-16.42
-11.40
-7.32
-3.67
-0.05
3.69
7.48
11.11
14.38
17.14
19.32
20.92
21.98
22.60
22.94
23.24
23.69
24.44
25.46
26.63
27.76
28.61
29.07
29.08
28.70
28.07
27.32
26.57
25.87
25.24
24.60
23.89
23.05
22.08
21.02
19.94
18.93
18.04
17.33
16.79
16.40
16.08
15.72
15.20
14.44
13.42
12.21
10.94
9.74
8.65
7.64
6.62
5.55
4.47
3.49
2.73
2.19
1.71
1.06
0.03
-1.45
-3.29
-5.27
-7.16
-8.81
-10.19
-11.37
-12.49
-13.71
-15.19
-17.04
-19.27
-21.80
-24.48
-27.17
-29.74
-32.17
-34.50
-36.86
-39.46
-42.57
-46.43
-51.07
-56.11
-60.73
-63.78
-64.19
-61.33
-55.33
-47.03
-37.66
-28.42
-20.16
-13.23
-7.56
-2.86
1.17
4.81
8.19
11.42
14.45
17.23
19.66
21.67
23.22
24.35
25.12
25.58
25.88
26.19
26.76
27.76
29.28
31.16
33.04
34.48
35.16
34.96
34.05
32.76
31.43
30.27
29.32
28.45
27.51
26.38
25.05
23.58
22.12
20.76
19.57
18.60
17.86
17.32
16.93
16.59
16.15
15.45
14.37
12.89
11.05
9.00
6.91
4.92
3.14
1.61
0.36
-0.65
-1.50
-2.31
-3.20
-4.22
-5.30
-6.35
-7.21
-7.86
-8.40
-9.02
-10.01
-11.51
-13.57
-16.04
-18.69
-21.30
-23.72
-25.96
-28.13
-30.51
-33.35
-36.90
-41.19
-45.93
-50.45
-53.81
-55.02
-53.41
-48.84
-41.90
-33.63
-25.30
-17.91
-12.01
-7.61
-4.40
-1.93
0.13
1.94
3.50
4.80
5.85
6.76
7.71
8.84
10.24
11.88
13.65
15.46
17.21
18.86
20.39
21.77
22.95
23.89
24.50
24.76
24.66
24.30
23.72
23.01
22.22
21.33
20.33
19.26
18.21
17.38
16.93
16.86
17.03
17.14
16.89
16.13
14.91
13.52
12.27
11.36
10.79
10.41
9.97
9.29
8.32
7.11
5.80
4.45
3.13
1.79
0.41
-1.05
-2.59
-4.16
-5.72
-7.28
-8.87
-10.58
-12.51
-14.72
-17.20
-19.90
-22.72
-25.58
-28.46
-31.36
-34.29
-37.27
-40.31
-43.47
-46.91
-50.83
-55.38
-60.40
-65.37
-69.37
-71.39
-70.64
-66.85
-60.39
-52.10
-43.00
-34.00
-25.73
-18.47
-12.25
-6.95
-2.37
1.78
5.72
9.64
13.58
17.45
21.08
24.28
26.96
29.10
30.76
32.04
33.06
33.95
34.78
35.62
36.42
37.09
37.54
37.67
37.45
36.95
36.26
35.51
34.78
34.14
33.55
32.95
32.26
31.40
30.37
29.21
27.99
26.80
25.73
24.79
24.01
23.35
22.78
22.24
21.60
20.81
19.80
18.57
17.17
15.73
14.33
13.06
11.95
10.99
10.15
9.38
8.61
7.76
6.74
5.50
4.07
2.58
1.18
0.01
-0.95
-1.87
-3.00
-4.52
-6.48
-8.71
-10.89
-12.77
-14.26
-15.53
-16.89
-18.72
-21.21
-24.33
-27.79
-31.24
-34.37
-37.10
-39.63
-42.32
-45.60
-49.77
-54.93
-60.82
-66.81
-71.98
-75.27
-75.75
-72.95
-67.02
-58.69
-49.11
-39.46
-30.60
-23.00
-16.66
-11.30
-6.52
-1.96
2.67
7.50
12.44
17.24
21.57
25.12
27.72
29.40
30.38
30.94
31.41
32.05
33.02
34.34
35.89
37.42
38.61
39.23
39.18
38.59
37.68
36.68
35.77
34.99
34.30
33.67
33.06
32.49
31.91
31.25
30.40
29.29
27.93
26.42
24.94
23.59
22.43
21.36
20.25
19.02
17.66
16.29
15.06
14.04
13.17
12.28
11.19
9.80
8.21
6.60
5.22
4.17
3.41
2.77
2.01
0.97
-0.46
-2.24
-4.28
-6.40
-8.46
-10.30
-11.92
-13.38
-14.87
-16.60
-18.69
-21.21
-24.08
-27.16
-30.28
-33.35
-36.34
-39.32
-42.46
-45.98
-50.06
-54.77
-59.94
-65.02
-69.20
-71.50
-71.09
-67.60
-61.23
-52.76
-43.28
-33.90
-25.42
-18.17
-12.09
-6.88
-2.17
2.27
6.53
10.61
14.42
17.84
20.81
23.27
25.26
26.83
28.12
29.28
30.46
31.72
33.08
34.45
35.69
36.66
37.19
37.17
36.57
35.47
34.05
32.63
31.47
30.68
30.18
29.65
28.77
27.30
25.31
23.06
20.96
19.30
18.19
17.52
17.04
16.47
15.60
14.34
12.75
10.98
9.25
7.69
6.29
4.90
3.26
1.15
-1.46
-4.43
-7.52
-10.44
-12.99
-15.04
-16.59
-17.64
-18.33
-18.84
-19.36
-20.08
-21.08
-22.30
-23.67
-25.17
-26.94
-29.32
-32.62
-36.96
-42.04
-47.13
-51.15
-53.10
-52.28
-48.62
-42.68
-35.43
-27.88
-20.76
-14.40
-8.74
-3.59
1.17
5.48
9.16
12.03
14.11
15.61
16.85
18.10
19.51
21.04
22.61
24.16
25.70
27.34
29.16
31.16
33.15
34.86
36.00
36.40
36.05
35.16
34.04
32.98
32.11
31.43
30.82
30.15
29.34
28.42
27.46
26.53
25.62
24.71
23.77
22.76
21.70
20.63
19.60
18.68
17.92
17.31
16.76
16.08
15.09
13.70
11.93
9.99
8.09
6.37
4.80
3.26
1.61
-0.22
-2.19
-4.19
-6.11
-7.87
-9.49
-11.03
-12.61
-14.38
-16.47
-18.92
-21.72
-24.75
-27.92
-31.09
-34.21
-37.30
-40.41
-43.73
-47.48
-51.93
-57.21
-63.20
-69.34
-74.71
-78.16
-78.73
-75.94
-69.92
-61.42
-51.58
-41.56
-32.24
-24.07
-17.03
-10.83
-5.11
0.37
5.67
10.67
15.22
19.23
22.65
25.50
27.80
29.57
30.90
31.96
33.02
34.29
35.84
37.53
39.13
40.37
41.13
41.34
41.07
40.39
39.33
38.02
36.60
35.25
34.11
33.24
32.53
31.84
31.01
30.01
28.83
27.53
26.15
24.74
23.34
22.01
20.81
19.79
18.88
18.01
17.10
16.12
15.13
14.15
13.20
12.21
11.07
9.69
8.11
6.42
4.82
3.44
2.35
1.46
0.60
-0.39
-1.69
-3.37
-5.47
-7.91
-10.55
-13.22
-15.80
-18.22
-20.55
-22.92
-25.46
-28.21
-31.09
-33.98
-36.78
-39.46
-42.11
-44.90
-48.03
-51.67
-55.99
-60.96
-66.31
-71.39
-75.21
-76.69
-75.02
-69.97
-62.06
-52.32
-42.04
-32.31
-23.80
-16.65
-10.67
-5.49
-0.69
4.02
8.78
13.52
18.02
21.96
25.11
27.41
29.03
30.25
31.35
32.47
33.60
34.65
35.60
36.50
37.37
38.18
38.73
38.81
38.27
37.21
35.88
34.62
33.67
33.04
32.56
31.98
31.10
29.88
28.43
26.93
25.59
24.55
23.89
23.57
23.48
23.42
23.18
22.55
21.37
19.65
17.49
15.12
12.84
10.84
9.22
7.90
6.70
5.38
3.75
1.74
-0.59
-3.16
-5.81
-8.43
-10.95
-13.35
-15.71
-18.13
-20.74
-23.61
-26.69
-29.83
-32.87
-35.72
-38.45
-41.33
-44.71
-48.83
-53.66
-58.69
-63.05
-65.63
-65.51
-62.26
-56.12
-47.90
-38.68
-29.47
-20.96
-13.47
-7.03
-1.54
3.12
7.09
10.53
13.56
16.30
18.79
21.02
22.93
24.52
25.84
26.98
28.03
29.09
30.26
31.60
33.11
34.69
36.14
37.19
37.63
37.36
36.42
34.94
33.12
31.18
29.31
27.70
26.43
25.49
24.73
23.96
23.01
21.83
20.52
19.21
18.04
17.02
16.08
15.16
14.24
13.32
12.42
11.51
10.49
9.27
7.85
6.30
4.78
3.41
2.29
1.36
0.56
-0.27
-1.25
-2.50
-4.09
-5.99
-8.07
-10.14
-12.01
-13.64
-15.18
-16.85
-18.90
-21.46
-24.49
-27.84
-31.31
-34.73
-38.00
-41.07
-43.99
-46.95
-50.27
-54.31
-59.29
-65.02
-70.77
-75.39
-77.64
-76.65
-72.27
-65.06
-56.08
-46.46
-37.08
-28.42
-20.67
-13.85
-7.93
-2.82
1.70
5.87
9.90
13.85
17.53
20.67
23.07
24.73
25.88
26.82
27.77
28.81
29.93
31.11
32.39
33.81
35.33
36.72
37.62
37.68
36.75
35.00
32.81
30.67
28.93
27.72
26.94
26.42
25.96
25.49
25.03
24.60
24.24
23.92
23.56
23.09
22.49
21.78
21.02
20.30
19.66
19.10
18.52
17.81
16.79
15.39
13.60
11.54
9.40
7.39
5.61
4.07
2.63
1.08
-0.79
-3.11
-5.87
-8.89
-11.92
-14.75
-17.30
-19.66
-22.03
-24.58
-27.39
-30.37
-33.34
-36.18
-38.85
-41.44
-44.08
-46.84
-49.81
-53.06
-56.78
-61.13
-66.11
-71.31
-75.88
-78.65
-78.59
-75.13
-68.47
-59.48
-49.44
-39.57
-30.71
-23.21
-16.95
-11.67
-7.00
-2.72
1.30
5.10
8.62
11.79
14.52
16.77
18.49
19.75
20.68
21.47
22.33
23.50
25.10
27.15
29.50
31.83
33.75
34.91
35.18
34.66
33.70
32.80
32.34
32.55
33.34
34.46
35.51
36.16
36.20
35.57
34.35
32.67
30.71
28.56
26.35
24.18
22.20
20.60
19.53
19.04
19.01
19.23
19.41
19.28
18.76
17.85
16.66
15.31
13.88
12.39
10.84
9.19
7.44
5.57
3.60
1.55
-0.54
-2.62
-4.70
-6.79
-8.99
-11.37
-14.03
-16.99
-20.22
-23.61
-26.95
-30.04
-32.78
-35.26
-37.75
-40.72
-44.64
-49.71
-55.69
-61.80
-66.86
-69.62
-69.17
-65.16
-58.01
-48.70
-38.48
-28.55
-19.74
-12.43
-6.57
-1.84
2.20
5.87
9.35
12.66
15.68
18.28
20.41
22.13
23.57
24.87
26.09
27.32
28.57
29.87
31.27
32.73
34.15
35.33
36.05
36.14
35.58
34.52
33.21
31.92
30.81
29.91
29.13
28.37
27.53
26.62
25.67
24.73
23.81
22.89
21.95
20.99
20.05
19.15
18.29
17.37
16.26
14.89
13.29
11.62
10.08
8.80
7.79
6.92
6.07
5.14
4.14
3.11
2.07
0.92
-0.49
-2.30
-4.50
-6.95
-9.42
-11.72
-13.80
-15.78
-17.84
-20.16
-22.78
-25.67
-28.73
-31.83
-34.86
-37.76
-40.54
-43.35
-46.51
-50.40
-55.27
-60.97
-66.82
-71.67
-74.29
-73.73
-69.71
-62.66
-53.58
-43.63
-33.90
-25.09
-17.54
-11.27
-6.04
-1.58
2.42
6.18
9.79
13.25
16.48
19.38
21.85
23.87
25.45
26.73
27.89
29.14
30.62
32.34
34.17
35.85
37.12
37.81
37.93
37.58
36.90
36.01
34.97
33.78
32.46
31.06
29.66
28.36
27.24
26.31
25.53
24.86
24.24
23.62
22.95
22.21
21.36
20.42
19.44
18.45
17.47
16.45
15.31
13.98
12.44
10.75
9.02
7.36
5.86
4.50
3.28
2.12
0.96
-0.29
-1.71
-3.40
-5.36
-7.54
-9.77
-11.89
-13.77
-15.44
-17.08
-18.94
-21.27
-24.10
-27.31
-30.57
-33.60
-36.26
-38.67
-41.21
-44.39
-48.66
-54.16
-60.58
-67.12
-72.55
-75.57
-75.21
-71.13
-63.75
-54.17
-43.73
-33.69
-24.87
-17.52
-11.48
-6.36
-1.79
2.53
6.73
10.84
14.83
18.59
21.96
24.81
27.06
28.73
29.97
30.97
31.96
33.09
34.44
35.96
37.50
38.84
39.73
39.98
39.52
38.40
36.81
35.03
33.31
31.81
30.58
29.61
28.78
28.02
27.23
26.37
25.40
24.36
23.28
22.23
21.26
20.39
19.56
18.73
17.85
16.97
16.16
15.51
15.00
14.47
13.68
12.39
10.56
8.36
6.13
4.22
2.79
1.75
0.80
-0.37
-1.93
-3.85
-5.94
-7.98
-9.89
-11.74
-13.69
-15.91
-18.47
-21.28
-24.17
-26.93
-29.48
-31.88
-34.29
-36.96
-40.08
-43.73
-47.96
-52.70
-57.74
-62.64
-66.71
-69.00
-68.68
-65.19
-58.62
-49.70
-39.61
-29.58
-20.53
-12.87
-6.53
-1.18
3.53
7.75
11.49
14.65
17.14
19.01
20.39
21.55
22.73
24.10
25.69
27.43
29.18
30.80
32.23
33.45
34.50
35.32
35.83
35.86
35.33
34.25
32.83
31.36
30.14
29.31
28.81
28.43
27.93
27.19
26.26
25.31
24.49
23.84
23.28
22.61
21.64
20.32
18.71
16.94
15.20
13.56
12.06
10.66
9.33
8.07
6.86
5.66
4.40
2.98
1.31
-0.57
-2.58
-4.59
-6.47
-8.21
-9.88
-11.66
-13.76
-16.35
-19.44
-22.92
-26.54
-30.02
-33.17
-35.97
-38.60
-41.42
-44.87
-49.29
-54.72
-60.83
-66.80
-71.52
-73.84
-72.95
-68.69
-61.57
-52.65
-43.11
-33.90
-25.57
-18.28
-11.94
-6.39
-1.48
2.92
6.91
10.58
13.92
16.86
19.35
21.37
23.04
24.59
26.23
28.10
30.13
32.19
34.12
35.81
37.21
38.28
38.92
39.02
38.50
37.43
36.01
34.51
33.18
32.14
31.37
30.72
30.04
29.22
28.18
26.95
25.58
24.20
22.89
21.76
20.78
19.92
19.03
18.01
16.83
15.50
14.08
12.61
11.15
9.74
8.45
7.27
6.13
4.86
3.31
1.36
-0.95
-3.45
-5.95
-8.27
-10.42
-12.48
-14.65
-17.06
-19.77
-22.74
-25.87
-29.05
-32.23
-35.35
-38.45
-41.64
-45.10
-49.07
-53.75
-59.14
-64.89
-70.24
-74.13
-75.45
-73.44
-67.95
-59.57
-49.42
-38.81
-28.87
-20.22
-13.01
-7.03
-1.93
2.61
6.76
10.59
14.10
17.22
19.89
22.09
23.86
25.32
26.63
27.96
29.43
31.05
32.77
34.51
36.18
37.68
38.87
39.58
39.67
39.08
37.89
36.32
34.66
33.14
31.88
30.84
29.89
28.89
27.73
26.45
25.11
23.86
22.78
21.92
21.24
20.63
19.95
19.09
18.00
16.73
15.36
14.01
12.72
11.51
10.31
9.09
7.82
6.56
5.38
4.35
3.48
2.71
1.93
0.99
-0.22
-1.76
-3.65
-5.84
-8.19
-10.56
-12.84
-15.01
-17.16
-19.47
-22.08
-25.02
-28.16
-31.28
-34.20
-36.90
-39.58
-42.61
-46.38
-51.12
-56.70
-62.58
-67.82
-71.32
-72.13
-69.68
-64.04
-55.82
-46.02
-35.74
-25.88
-17.06
-9.56
-3.43
1.46
5.32
8.46
11.18
13.76
16.32
18.81
21.04
22.82
24.11
25.04
25.92
27.10
28.73
30.73
32.83
34.67
35.95
36.53
36.41
35.66
34.40
32.73
30.82
28.88
27.18
25.93
25.19
24.85
24.69
24.46
24.00
23.28
22.39
21.42
20.43
19.41
18.30
17.07
15.73
14.35
13.01
11.75
10.52
9.28
7.96
6.52
4.96
3.25
1.31
-0.94
-3.57
-6.55
-9.75
-12.95
-15.97
-18.74
-21.31
-23.83
-26.41
-29.10
-31.86
-34.67
-37.66
-41.12
-45.43
-50.80
-57.07
-63.54
-69.13
-72.58
-72.91
-69.74
-63.34
-54.60
-44.64
-34.55
-25.15
-16.87
-9.78
-3.72
1.55
6.21
10.36
14.00
17.11
19.72
21.90
23.79
25.50
27.09
28.59
29.99
31.32
32.65
34.02
35.40
36.69
37.70
38.31
38.44
38.10
37.36
36.30
35.02
33.63
32.23
30.93
29.83
28.91
28.11
27.32
26.44
25.47
24.43
23.34
22.24
21.14
20.01
18.89
17.74
16.53
15.19
13.71
12.15
10.63
9.34
8.34
7.58
6.82
5.83
4.41
2.54
0.32
-2.07
-4.46
-6.78
-8.98
-11.10
-13.21
-15.47
-18.01
-20.90
-24.07
-27.30
-30.35
-33.07
-35.59
-38.18
-41.27
-45.14
-49.90
-55.35
-61.01
-66.15
-69.89
-71.38
-69.98
-65.50
-58.34
-49.37
-39.72
-30.40
-22.06
-14.93
-8.88
-3.69
0.84
4.85
8.42
11.61
14.56
17.31
19.86
22.14
24.03
25.49
26.56
27.40
28.26
29.30
30.60
32.06
33.48
34.55
35.01
34.74
33.76
32.31
30.68
29.16
27.91
26.98
26.24
25.59
24.94
24.25
23.52
22.74
21.85
20.79
19.59
18.37
17.30
16.52
15.98
15.50
14.81
13.73
12.27
10.62
9.05
7.72
6.64
5.66
4.61
3.37
1.95
0.43
-1.13
-2.68
-4.22
-5.81
-7.48
-9.30
-11.33
-13.56
-15.99
-18.51
-21.02
-23.41
-25.67
-27.94
-30.47
-33.50
-37.30
-41.93
-47.15
-52.40
-56.81
-59.36
-59.20
-55.90
-49.65
-41.22
-31.75
-22.38
-14.01
-7.06
-1.53
2.87
6.45
9.36
11.61
13.12
13.92
14.20
14.35
14.75
15.64
17.03
18.72
20.43
21.94
23.20
24.28
25.28
26.19
26.91
27.27
27.16
26.61
25.71
24.67
23.63
22.67
21.78
20.87
19.89
18.79
17.62
16.46
15.43
14.61
13.96
13.35
12.56
11.33
9.54
7.19
4.47
1.65
-1.04
-3.47
-5.64
-7.63
-9.55
-11.55
-13.79
-16.41
-19.51
-23.01
-26.70
-30.25
-33.39
-36.02
-38.35
-40.77
-43.84
-47.91
-52.98
-58.58
-63.78
-67.46
-68.60
-66.62
-61.54
-54.03
-45.10
-35.83
-27.09
-19.35
-12.72
-7.06
-2.09
2.42
6.65
10.66
14.39
17.75
20.68
23.15
25.21
26.91
28.32
29.48
30.42
31.21
31.94
32.73
33.62
34.57
35.40
35.89
35.84
35.19
34.06
32.68
31.33
30.20
29.35
28.71
28.13
27.41
26.41
25.09
23.51
21.84
20.27
19.00
18.13
17.60
17.21
16.73
15.93
14.71
13.15
11.36
9.53
7.74
6.04
4.41
2.86
1.37
-0.08
-1.54
-3.09
-4.78
-6.64
-8.59
-10.51
-12.37
-14.22
-16.21
-18.52
-21.26
-24.37
-27.67
-30.92
-33.95
-36.74
-39.47
-42.49
-46.15
-50.75
-56.29
-62.43
-68.45
-73.32
-75.99
-75.66
-72.09
-65.59
-57.06
-47.60
-38.29
-29.88
-22.72
-16.77
-11.69
-7.10
-2.62
1.93
6.58
11.19
15.53
19.34
22.48
24.87
26.60
27.82
28.75
29.63
30.67
31.99
33.62
35.42
37.15
38.48
39.13
38.95
37.98
36.45
34.72
33.20
32.15
31.63
